##BLOCKS= 2          
Note:~End
Plate:	Plate#1	1.3	PlateFormat	Well Scan	Absorbance	Raw	FALSE	9	Fill	3				1	600	1	12	96	1	8	None	
	Temperature(¡C)	1	2	3	4	5	6	7	8	9	10	11	12		
0:00	22.60	1.9062	1.1617	1.5553	1.6745	1.3639	0.6424	1.1556	1.8575	1.3469	1.3376	1.921	1.9669		
		1.7552	1.857	1.2735	1.2989	1.375	1.4189	1.2735	1.1558	1.2018	1.0235	1.2417	1.6149		
		1.5923	1.7859	1.1938	1.6498	1.4401	1.3158	1.2336	1.5738	1.6163	1.6792	1.7847	1.2192		
		1.6854	1.6823	1.8303	1.0244	1.3873	1.5778	1.286	1.3676	1.9479	1.2684	1.7678	1.3252		
		1.6167	1.7885	1.6413	1.8078	1.0944	1.4235	1.5382	1.2123	1.2317	1.8427	1.626	1.7093		
		1.4152	1.8044	1.375	1.6145	1.5355	0.8694	1.2038	1.7013	1.5923	1.5912	1.6296	1.5113		
		1.6439	1.1515	1.03	1.5267	1.1838	1.4392	1.3766	1.6354	1.2379	1.0649	1.6643	1.7018		
		1.9616	1.7616	1.2016	1.2875	1.5099	1.146	0.901	1.5879	1.6641	1.5012	1.2287	1.7007		
		
0:20	22.60	1.8201	0.9052	1.5026	1.612	1.4386	0.2715	1.0249	1.6929	1.1107	1.3976	1.8692	1.9327		
		1.6382	1.7255	0.9155	1.0363	1.3252	1.5696	1.3402	0.9655	1.1832	0.8733	0.8922	1.8034		
		1.6727	1.7323	0.8693	1.576	1.672	0.9125	1.0671	1.4457	1.5211	1.5406	1.6421	0.9241		
		1.5959	1.6539	1.6938	0.3758	1.5263	1.3943	1.5334	1.2642	1.7888	1.2002	1.653	1.3187		
		1.571	1.7264	1.5253	1.9331	0.8282	1.0577	1.4329	1.0352	1.0555	1.6975	1.6374	1.6229		
		1.2539	1.7367	1.498	1.5593	1.4327	0.9803	0.9651	1.6201	1.5301	1.5105	1.656	1.501		
		1.5563	1.0309	0.8513	1.4297	0.6653	1.2656	1.5366	1.4682	0.9573	0.9431	1.6494	1.623		
		1.9575	1.823	0.7268	1.0459	1.5273	1.1431	1.0475	1.4303	1.5056	1.4696	0.9301	1.6633		
		
0:40	22.60	1.764	0.8377	1.508	1.5825	1.5684	0.6087	0.9274	1.6858	0.9126	1.1821	1.8388	1.92		
		1.6149	1.6964	0.9565	0.9032	1.4008	1.5475	1.3503	0.8439	1.2838	1.1293	1.0034	1.8245		
		1.6879	1.7043	0.905	1.578	1.7336	0.7176	0.9554	1.4383	1.4602	1.502	1.6043	0.9431		
		1.5643	1.653	1.6253	0.5858	1.5621	1.3551	1.5754	1.4469	1.71	1.1263	1.6443	1.1179		
		1.5369	1.7178	1.5813	1.9575	0.7235	0.9656	1.5808	1.4129	1.1235	1.6842	1.6443	1.6165		
		1.1232	1.6112	1.4661	1.5778	1.3664	0.7167	0.8685	1.6125	1.5429	1.1301	1.6723	1.4747		
		1.1999	1.0083	0.9815	1.394	1.0265	1.3469	1.4671	1.4263	0.9341	0.8215	1.6274	1.6667		
		1.9216	1.8814	0.5571	0.9398	1.5817	1.042	0.658	1.4622	1.4905	1.3225	0.8081	1.6973		
		
1:00	22.60	1.9083	1.1613	1.5636	1.6991	1.4824	0.9045	1.1617	1.8455	1.1263	1.3939	1.8326	1.8866		
		1.7292	1.8553	1.227	1.3169	1.4277	1.5105	1.2049	0.9621	1.5065	1.1414	1.0823	1.5831		
		1.5249	1.7248	0.57	1.7324	1.5961	0.7981	1.1031	1.5499	1.6325	1.6188	1.8514	1.1984		
		1.6847	1.6774	1.8094	0.8607	1.2076	1.5607	1.4205	1.3921	1.9389	1.263	1.7379	1.4507		
		1.7075	1.7722	1.6725	1.9749	1.2018	1.2672	1.4093	1.1662	1.2057	1.7437	1.6785	1.6875		
		1.3082	1.9405	1.4422	1.644	1.5346	0.9761	0.7411	1.5573	1.6767	1.6547	1.7128	1.5152		
		1.7297	1.0925	1.1294	1.3915	0.6834	1.3908	1.5129	1.5893	1.4852	1.0647	1.839	1.6155		
		2.0206	1.834	1.0089	1.1929	1.5579	1.2022	0.7693	1.365	1.6957	1.515	1.2222	1.7524		
		
1:20	22.70	1.7884	0.9189	1.5212	1.6562	1.4619	0.3737	1.0514	1.6819	0.8948	1.3158	1.8658	1.913		
		1.6479	1.6745	0.8419	1.0116	1.3493	1.5256	1.2337	0.3837	1.1729	0.9519	0.8812	1.7582		
		1.6609	1.6965	0.6794	1.6282	1.6065	1.0655	1.0412	1.4237	1.5171	1.5298	1.6357	1.0825		
		1.6083	1.6381	1.6039	0.4161	1.4289	1.3823	1.4283	1.2431	1.7701	1.09	1.6662	1.4357		
		1.5763	1.7044	1.5418	1.9256	1.0216	0.6284	1.3023	1.0649	0.9257	1.6442	1.6296	1.5699		
		1.2029	1.726	1.4205	1.5305	1.2965	0.6333	0.4021	1.6066	1.5939	1.4093	1.676	1.537		
		1.7243	0.9642	0.8829	1.3341	0.5794	1.1832	1.4904	1.4852	1.1117	0.9334	1.6213	1.5944		
		1.9291	1.7955	0.6304	0.9626	1.5005	1.064	0.8668	1.4298	1.6789	1.4292	0.9008	1.6258		
		
1:40	22.70	1.7132	0.7937	1.5682	1.6183	1.5054	0.8218	0.9607	1.6705	0.8317	0.9569	1.8452	1.9063		
		1.591	1.6544	1.0353	0.9298	1.3895	1.5275	1.3023	0.7993	1.2364	1.043	0.9851	1.779		
		1.7072	1.6964	0.4484	1.5525	1.7014	0.4666	1.01	1.4203	1.4399	1.4805	1.5747	0.953		
		1.5701	1.6467	1.5699	0.6052	1.4531	1.2386	1.5209	1.3901	1.6212	1.146	1.6543	1.1488		
		1.5075	1.6867	1.4924	1.8948	0.969	0.7857	1.3633	1.3465	1.4071	1.6918	1.6033	1.5394		
		1.226	1.5834	1.4898	1.5289	1.2879	0.7014	0.3883	1.6288	1.5929	0.9322	1.6528	1.4978		
		1.5369	1.189	0.8501	1.381	0.6294	1.2703	1.5427	1.463	0.9259	0.7006	1.5787	1.6304		
		1.8912	1.8532	0.574	0.8359	1.516	0.903	0.4585	1.4814	1.6608	1.3634	0.8477	1.5883		
		
2:00	22.70	1.2767	1.1373	1.2081	1.2211	1.169	1.1181	1.1848	1.3414	1.0653	1.0338	1.2704	1.1813		
		1.2631	1.3309	1.0919	1.0866	1.1338	1.0389	1.0339	0.9333	1.1623	1.0385	0.8898	1.1366		
		1.2949	1.2276	0.7319	1.209	1.1879	0.6964	1.1333	1.1984	1.2319	1.2164	1.1922	1.0752		
		1.2912	1.2266	1.2931	1.0679	1.0764	1.1761	1.2565	1.1711	1.2658	1.2094	1.1538	1.1402		
		1.2974	1.268	1.2989	1.262	1.2253	1.1591	1.2915	1.0851	1.1981	1.2183	1.2334	1.1748		
		1.1384	1.2798	1.1943	1.2677	1.1999	0.7285	0.7153	1.1976	1.2323	1.153	1.3492	1.1571		
		1.3797	1.0578	1.1153	1.1531	0.592	1.1479	1.3096	1.2674	1.2764	1.0402	1.4056	1.2334		
		1.5569	1.3733	1.1141	1.1727	1.4039	1.0193	1.2371	1.138	1.3865	1.3366	1.1368	1.3464		
		
2:20	22.80	1.7271	1.0268	1.6564	1.6759	1.5621	0.6603	1.3126	1.7558	1.021	1.2885	1.9088	1.9536		
		1.7359	1.8147	1.1583	1.2247	1.5137	1.371	1.2351	0.8279	1.3665	1.1403	0.9146	1.6885		
		1.6699	1.8088	0.6235	1.6882	1.5499	1.2354	0.7306	1.495	1.5517	1.6742	1.8832	1.338		
		1.7146	1.6463	1.8689	0.856	1.249	1.5478	1.402	1.383	1.8014	1.4355	1.725	1.3911		
		1.6804	1.7795	1.6486	1.9863	1.1978	0.9767	1.4019	1.3709	1.0992	1.7638	1.6685	1.6919		
		1.2998	1.8656	1.4373	1.5652	1.4117	0.5913	0.3758	1.6415	1.6614	1.4476	1.6652	1.6056		
		1.7741	1.1821	0.9181	1.3156	0.3978	1.1969	1.5728	1.5568	1.3307	0.8461	1.8506	1.6153		
		1.9701	1.8746	0.7652	1.0363	1.5912	1.0896	0.9821	1.4163	1.6836	1.4916	0.9811	1.7091		
		
2:40	22.80	1.7928	0.9455	1.6384	1.6508	1.4894	0.8088	1.0874	1.7326	1.0318	1.1884	1.9221	1.9704		
		1.6712	1.8421	1.2373	1.0968	1.4759	1.5283	1.3721	0.6036	1.3178	1.0432	0.8833	1.601		
		1.707	1.776	0.3267	1.6587	1.7276	0.5223	0.7044	1.5082	1.4864	1.5662	1.7917	1.1916		
		1.6965	1.7085	1.8274	0.6041	1.3645	1.4823	1.3443	1.3419	1.7798	1.3559	1.7373	1.2499		
		1.6348	1.7819	1.6006	1.9171	1.2144	1.0301	1.2475	1.4799	1.2592	1.8478	1.6428	1.6358		
		1.3849	1.8314	1.3752	1.5292	1.3855	0.5754	0.3258	1.6379	1.701	0.9511	1.7352	1.5872		
		1.7243	1.3435	0.8455	1.4982	0.8399	1.1852	1.5646	1.5443	1.1936	0.8601	1.8592	1.6904		
		1.947	1.8727	0.6751	1.005	1.5954	1.1038	0.9227	1.5226	1.6735	1.4122	0.875	1.6903		
		
~End
Instrument type: Instrument serial number:
