##BLOCKS= 2          
Note:~End
Plate:	Plate#1	1.3	PlateFormat	Well Scan	Absorbance	Raw	FALSE	9	Fill	3				1	600	1	12	96	1	8	None	
	Temperature(¡C)	1	2	3	4	5	6	7	8	9	10	11	12		
0:00	22.70	0.9339	0.773	0.8113	1.4848	1.5575	1.0625	1.4964	1.6284	0.9659	1.2984	1.6257	0.3352		
		1.5516	1.6774	1.4094	0.9522	1.4732	0.3475	1.2245	1.5684	1.7095	0.3989	1.3521	1.3066		
		0.9809	1.6363	0.9636	0.9152	1.7685	1.8762	0.5531	1.3748	1.5192	1.4301	1.7157	0.9197		
		0.5707	0.5342	1.5195	0.7445	1.1396	1.0131	0.7436	1.1357	1.8055	1.5589	1.6455	1.1809		
		0.2554	0.9331	0.8276	1.4686	1.5189	0.3186	1.2445	1.1847	0.9722	0.7009	1.8021	1.8702		
		1.5399	1.6899	1.4514	0.9109	1.4783	1.4116	0.749	0.3319	1.5534	0.8582	0.8555	1.4664		
		1.4268	1.5633	0.7885	1.3786	1.5886	0.4396	0.3422	1.4308	1.4925	1.421	1.6491	0.933		
		1.4445	1.6116	1.7167	0.5803	1.3308	1.2837	0.9656	1.0552	1.613	1.6134	1.6382	1.365		
		
0:20	22.80	1.0043	0.7676	0.8104	1.4398	1.5429	1.1521	1.4364	1.6167	0.9816	1.259	1.6581	0.4968		
		1.5472	1.531	1.2377	0.842	1.5322	0.755	1.3335	1.6465	1.6611	1.0682	1.5777	1.3394		
		1.0599	1.6012	0.9658	0.6013	1.6878	1.8515	0.2448	1.3638	1.492	1.444	1.6672	1.0279		
		0.8549	1.0075	1.5618	0.9664	1.1047	1.0388	0.7928	1.0497	1.8298	1.6103	1.6556	1.317		
		0.3543	0.846	0.8784	1.4422	1.5355	0.6518	1.2494	1.3683	0.9204	0.8311	1.794	1.888		
		1.3982	1.7628	1.4198	0.8433	1.4867	1.3936	0.7102	1.0161	1.5428	0.8505	1.0777	1.6342		
		1.4575	1.5934	0.8311	1.3805	1.6448	0.4915	0.4759	1.4238	1.5025	1.3876	1.6546	0.875		
		1.4128	1.6201	1.7484	0.6619	1.1771	1.1659	1.475	0.7966	1.6553	1.5736	1.6582	1.3701		
		
0:40	22.80	1.285	0.9732	0.8201	1.4398	1.5046	0.9024	1.4539	1.7432	0.7328	1.3832	1.6267	0.9156		
		1.6205	1.4538	1.3774	0.9666	1.5283	0.5153	1.5117	1.667	1.6646	1.2163	1.5043	1.5284		
		0.9748	1.746	1.1043	0.9888	1.7437	1.9193	0.5107	1.4717	1.5671	1.5347	1.7852	1.0962		
		1.0146	1.3221	1.474	1.2245	1.1421	1.1718	0.8486	1.0101	1.7174	1.399	1.7699	1.3576		
		0.7087	0.914	1.0333	1.5461	1.4587	1.0593	1.2272	1.7149	0.9397	0.9713	0.9813	1.9415		
		1.5352	1.8778	1.3874	1.0888	1.5048	1.4509	0.9565	0.715	1.2961	1.0632	1.0139	1.4492		
		1.5354	1.6822	1.0561	1.4803	1.6198	0.3647	1.2747	1.631	1.627	1.4908	1.8284	1.068		
		1.4661	1.5987	1.8232	0.9843	1.0014	1.3446	1.6236	0.9259	2.0039	1.5747	1.7695	1.4902		
		
1:00	22.80	1.0162	0.8657	0.8733	1.4224	1.4303	1.1858	1.4682	1.6151	0.4186	1.4002	1.5449	0.3518		
		1.5755	1.586	1.2375	0.9293	1.4852	0.3275	1.3506	1.5591	1.722	0.317	1.5513	1.2691		
		1.0649	1.6411	0.9492	0.6459	1.7744	1.8361	0.48	1.4043	1.5226	1.5355	1.6496	1.0926		
		0.4072	0.5107	1.5299	0.7938	0.8332	0.7401	0.2878	1.1111	1.8196	1.5205	1.6359	1.2353		
		0.2085	0.7683	0.8309	1.5463	1.4923	0.3138	1.2429	1.4605	1.0128	0.7815	1.7935	1.87		
		1.5412	1.6816	1.3818	0.9733	1.5018	1.3661	0.7537	0.4046	1.5382	0.8723	0.8904	1.4164		
		1.4468	1.5983	0.4512	1.4453	1.6744	0.5784	0.2838	1.4247	1.5182	1.3806	1.598	1.0229		
		1.4794	1.619	1.8091	0.2576	0.973	1.3066	0.8261	1.1249	1.6853	1.638	1.6285	1.3431		
		
1:20	22.90	1.0325	0.7735	0.9039	1.2783	1.4441	1.211	1.4404	1.6171	0.4273	1.312	1.5687	0.4222		
		1.5286	1.5024	1.1855	0.8572	1.4399	0.6399	1.45	1.6021	1.735	0.5917	1.5598	1.3196		
		1.0383	1.5245	1.0005	0.5785	1.6099	1.8333	0.2381	1.4103	1.5173	1.4731	1.6138	1.0119		
		0.5143	0.8629	1.5737	0.8281	1.1591	0.4716	0.2558	1.3118	1.7792	1.5768	1.621	1.2795		
		0.3445	0.7909	0.9438	1.4509	1.5018	0.7205	1.1947	1.6578	0.9332	0.953	1.7786	1.8681		
		1.3955	1.7419	1.3587	0.9958	1.516	1.2223	0.6628	1.0448	1.529	0.8732	0.9754	1.5364		
		1.4957	1.5764	0.4021	1.4187	1.6497	0.5516	0.4927	1.4172	1.4681	1.3115	1.6133	0.9959		
		1.5407	1.6349	1.7567	0.3225	0.7964	1.3265	1.1969	0.8502	1.7845	1.5725	1.6571	1.4561		
		
1:40	22.90	1.2587	0.9283	0.8655	1.29	1.452	1.5424	1.4658	1.7407	0.664	1.3096	1.537	1.2931		
		1.6241	1.6996	1.415	0.9887	1.4822	1.2424	1.6286	1.6388	1.622	1.0349	1.5308	1.4457		
		1.1038	1.631	1.1398	0.842	1.7955	1.9051	0.6834	1.478	1.6004	1.3834	1.831	1.0998		
		0.7943	0.6056	1.5472	1.089	1.3628	0.9655	0.5532	1.2603	1.8577	1.4811	1.7287	1.4298		
		1.0392	0.8972	1.2139	1.4568	1.4928	0.783	1.2835	1.7441	0.9757	1.0203	1.7262	1.9357		
		1.4655	1.8803	1.6477	1.0938	1.5665	1.2773	1.0001	0.5163	1.417	1.1517	1.1927	1.582		
		1.5122	1.6899	0.7289	1.4829	1.6394	0.332	0.8861	1.5623	1.5892	1.4479	1.8389	1.2767		
		1.4121	1.6478	1.856	1.1214	0.9946	1.608	1.1829	0.8619	2.0459	1.5844	1.72	1.5337		
		
2:00	22.90	1.2919	1.0645	1.1349	1.4512	1.4265	1.0695	1.4517	1.7147	0.6199	1.5405	1.6609	0.78		
		1.6415	1.6711	1.335	1.1128	1.5734	0.7988	1.5607	1.5425	1.7519	0.7078	1.5505	1.3352		
		1.0936	1.8053	1.1984	0.9129	1.7047	1.8304	0.4132	1.5355	1.6111	1.5764	1.803	1.2401		
		0.6056	0.834	1.5887	0.908	0.9294	0.7118	0.3078	1.4673	1.7759	1.626	1.741	1.4211		
		0.4214	0.9327	0.9257	1.47	1.3859	0.5484	1.3967	1.7747	1.2794	1.3257	1.8769	1.9132		
		1.6554	1.8466	1.4769	1.1114	1.5292	1.3948	0.9569	0.6724	1.6598	1.0325	0.906	1.6086		
		1.5685	1.6674	1.2063	1.4811	1.6417	0.8978	0.6736	1.511	1.6289	1.4367	1.7686	1.1789		
		1.7063	1.6736	1.8393	0.6364	0.8952	1.4984	1.2641	1.3767	1.8373	1.6846	1.7072	1.4531		
		
2:20	23.00	1.3006	1.0473	1.0171	1.3801	1.4597	1.0896	1.4566	1.7224	0.4648	1.4444	1.617	0.5905		
		1.653	1.5103	1.3174	0.9895	1.608	0.6949	1.6928	1.5227	1.6176	0.7771	1.2937	1.444		
		1.0089	1.7582	1.1463	0.9705	1.7448	1.9009	0.3088	1.5079	1.6043	1.5119	1.7297	1.1093		
		0.6405	0.5925	1.6319	1.015	1.2052	0.5643	0.2977	1.2216	1.8493	1.609	1.6854	1.3553		
		0.9912	0.9231	0.9385	1.5051	1.458	0.5825	1.2579	1.7872	1.1371	1.2251	1.8661	1.9087		
		1.5515	1.7735	1.3931	1.1112	1.614	1.3233	0.6731	1.2123	1.5963	0.9743	0.9255	1.6655		
		1.5161	1.6991	0.7196	1.4881	1.6342	0.7848	0.9742	1.4902	1.5691	1.3643	1.79	1.0932		
		1.7257	1.714	1.8285	0.436	1.1341	1.5548	1.2473	1.0424	1.9358	1.6265	1.7212	1.5113		
		
2:40	23.00	1.4565	1.0964	0.9435	1.4506	1.5748	1.2638	1.5775	1.717	0.7738	1.4073	1.5494	1.0178		
		1.6381	1.6054	1.5153	1.2059	1.6656	0.854	1.6781	1.4343	1.3811	1.1376	1.3448	1.4634		
		1.2307	1.6718	1.2716	1.3994	1.8903	1.89	0.7461	1.4833	1.6383	1.518	1.8525	1.1988		
		1.1393	0.7243	1.6568	1.3245	1.2742	1.0599	0.6651	1.201	1.8946	1.6905	1.7184	1.3813		
		1.1026	1.1603	1.4928	1.622	1.4987	1.4222	1.3429	1.7517	1.1433	1.4236	1.5582	1.8587		
		1.5342	1.7413	1.4645	1.2195	1.5545	1.3017	1.092	1.0294	1.4556	1.3232	1.3018	1.4349		
		1.4965	1.6483	1.4473	1.5904	1.5715	0.8358	1.492	1.5387	1.6904	1.4956	1.7985	1.3718		
		1.6265	1.7267	1.7826	1.1813	0.9927	1.3776	1.2777	1.2442	1.9886	1.6461	1.7485	1.3249		
		
~End
Instrument type: Instrument serial number:
