##BLOCKS= 2          
Note:~End
Plate:	Plate#1	1.3	PlateFormat	Well Scan	Absorbance	Raw	FALSE	9	Fill	3				1	600	1	12	96	1	8	None	
	Temperature(¡C)	1	2	3	4	5	6	7	8	9	10	11	12		
0:00	22.80	0.9974	1.7557	1.5477	1.9015	1.0337	0.787	1.3793	1.1757	0.3634	1.8494	1.6989	1.2256		
		1.0046	1.8781	1.5871	1.5525	1.6067	1.0051	0.4573	1.8267	1.6456	1.5888	1.6781	1.5609		
		1.7374	0.588	1.0211	1.5426	0.6243	1.3843	1.4009	1.5147	1.2161	0.9697	1.8087	1.7348		
		1.9629	1.7143	0.9358	0.7327	1.3515	0.8627	0.3106	1.6053	1.5722	1.0923	0.668	1.7489		
		1.8815	0.8469	0.9777	1.6216	1.5207	0.9221	1.6843	1.6669	1.6251	0.9525	1.7443	0.7236		
		1.7337	1.5042	0.959	1.0969	1.3549	1.5257	1.5953	1.6826	1.6919	0.2847	1.3554	1.0938		
		1.0967	1.3863	0.6749	1.0206	1.9176	2.0188	0.8681	1.4738	1.5763	1.424	1.8945	1.3625		
		1.6626	1.5127	1.6254	1.0191	0.7457	1.4905	1.6676	1.2279	1.855	1.5443	1.7704	1.3354		
		
0:20	22.90	1.1611	1.7121	1.6053	1.868	0.9872	0.8586	1.3537	1.2449	0.2955	1.6953	1.6143	1.5261		
		0.9574	1.8367	1.6461	1.6156	1.6365	1.0989	0.6908	1.7743	1.6233	1.5689	1.7032	1.5629		
		1.3068	0.9086	0.9502	1.5889	0.8595	1.3475	1.5694	1.4264	1.1943	0.9273	1.742	1.7378		
		1.9641	1.7031	0.9936	0.6154	1.4521	0.6441	0.4545	1.6612	1.2585	1.1272	0.8148	1.778		
		1.8241	0.7633	0.9466	1.6783	1.6673	0.4141	1.732	1.6784	1.7919	0.9282	1.6874	0.25		
		1.6757	1.548	0.7495	1.0571	1.523	1.5765	1.6261	1.7282	1.6022	0.6864	1.1851	1.3251		
		0.9858	1.0362	0.5718	0.7177	1.9493	1.9929	1.2178	1.407	1.6012	1.5143	1.8195	1.2986		
		1.6509	1.6213	1.643	1.0434	1.175	1.5034	1.676	0.9812	1.826	1.7439	1.8179	1.2519		
		
0:40	22.90	1.1245	1.7439	1.6567	2.0239	1.1018	1.1335	1.3265	1.3296	0.8142	1.7504	1.4171	1.5626		
		0.9894	1.8634	1.6884	1.6663	1.8031	0.94	1.3412	1.6789	1.6722	1.6184	1.7937	1.5886		
		1.335	0.92	0.8981	1.7506	1.0808	1.3597	1.3822	1.4493	1.0494	1.3207	1.851	1.7623		
		2.0369	1.7929	0.8882	0.886	1.2354	0.7199	0.7951	1.5573	1.235	1.074	0.7715	1.8112		
		1.8602	0.9774	0.8271	1.6059	1.4983	0.3102	1.7201	1.7058	1.834	1.0726	1.6365	0.2754		
		1.7097	1.4139	0.9676	1.0244	1.6623	1.4298	1.4688	1.6138	1.4674	1.3763	1.5115	1.411		
		1.0436	1.1053	0.7034	0.9722	2.0334	2.0664	1.067	1.5297	1.647	1.6795	1.8513	1.177		
		1.6816	1.3319	1.3405	1.0805	1.3971	1.4568	1.7811	0.8866	1.8566	1.789	1.8095	1.5165		
		
1:00	23.00	1.1425	1.7261	1.5385	1.8736	0.9144	0.8397	1.354	1.402	0.3616	1.7171	1.6606	1.4532		
		1.0637	1.7035	1.556	1.5715	1.6378	1.1751	0.6707	1.7376	1.6413	1.4286	1.5987	1.5609		
		1.6157	0.6378	1.0405	1.522	0.7406	1.2726	1.3576	1.5716	1.1876	1.034	1.722	1.7415		
		1.9607	1.6001	1.0028	0.7018	1.5099	0.6087	0.6325	1.4764	1.5692	1.0764	0.6362	1.7323		
		1.8239	0.9167	0.7906	1.6645	1.5224	1.1077	1.6692	1.7738	1.7435	1.0093	1.7644	0.4501		
		1.6848	1.6117	1.1414	1.0307	1.5417	1.5634	1.2058	1.5754	1.7329	0.3653	1.518	1.4821		
		0.6863	1.4337	0.5604	1.0227	1.8208	2.0183	0.9563	1.3718	1.5218	1.4506	1.8549	1.3976		
		1.6821	1.5373	1.5954	1.2347	0.7921	1.5508	1.6597	1.0125	1.8819	1.6279	1.7316	1.173		
		
1:20	23.00	1.3072	1.7494	1.4795	1.8505	0.9074	0.7854	1.3275	1.2833	0.2926	1.6381	1.5843	1.5031		
		1.0096	1.6535	1.515	1.5614	1.6568	1.0135	0.6139	1.6512	1.6382	1.3436	1.6286	1.6059		
		1.4866	0.8384	0.9863	1.5651	0.3812	1.3178	1.3032	1.5458	1.2398	1.0464	1.7326	1.7337		
		1.945	1.8163	1.0536	0.6311	1.4626	0.5036	0.5794	1.4227	0.9628	1.0217	0.7589	1.7422		
		1.7618	1.0064	0.7242	1.6245	1.5423	0.2497	1.6855	1.7283	1.8376	0.9335	1.7181	0.2371		
		1.6677	1.5437	0.8839	1.1103	1.4969	1.4794	1.316	1.5481	1.6302	0.3682	1.4748	1.2043		
		0.6027	1.2633	0.6284	0.8333	1.9394	2.0467	0.9317	1.3147	1.5483	1.4523	1.7413	1.4125		
		1.6459	1.1831	1.4256	0.9711	0.8344	1.156	1.6833	1.017	1.8495	1.7956	1.7748	1.4516		
		
1:40	23.00	1.2151	1.8195	1.5253	1.7735	0.8588	1.0917	1.3137	0.9789	0.74	1.7003	1.5493	1.513		
		1.0106	1.767	1.4773	1.6002	1.7707	0.9519	1.11	1.6497	1.6602	1.2877	1.7659	1.5719		
		1.0995	0.9521	0.942	1.7349	0.2734	1.3765	1.2762	1.56	1.1423	0.9642	1.8174	1.7672		
		2.0157	1.833	0.8775	0.7412	1.2859	0.5746	0.4543	1.4756	0.9432	1.1429	0.7345	1.79		
		1.8925	0.8297	0.7732	1.5579	1.5974	0.4033	1.6085	1.6797	1.8139	0.9998	1.5471	0.3172		
		1.6877	1.6303	0.62	1.2733	1.5889	1.4476	1.2578	1.5789	1.5617	0.5927	1.209	1.3977		
		0.9474	1.4323	0.6497	0.9379	2.0602	2.013	1.0425	1.4797	1.6628	1.4412	1.826	1.1991		
		1.6985	1.2239	1.0874	0.9989	1.0186	1.0839	1.7965	0.959	1.9896	1.8158	1.8478	1.5984		
		
2:00	23.10	1.3648	1.7044	1.5503	1.9749	1.1994	1.2515	1.4812	1.3016	1.1166	1.7771	1.6242	1.5149		
		1.1841	1.7878	1.3484	1.6518	1.7394	1.2241	0.6498	1.604	1.6347	1.226	1.6989	1.5009		
		1.454	0.7571	1.009	1.5297	1.2752	1.3388	1.3478	1.6004	1.1104	1.2939	1.8088	1.7665		
		2.0276	1.838	1.2662	0.8164	1.4174	0.8791	0.5576	1.4398	1.2747	1.0989	0.622	1.7321		
		1.9086	1.0132	0.8287	1.6012	1.4924	1.6544	1.59	1.9276	1.6449	1.2014	1.5575	0.6081		
		1.6998	1.6801	1.1808	0.9846	1.3689	1.4507	1.2907	1.5021	1.819	1.2351	1.5577	1.3324		
		0.7265	1.2745	0.5553	1.2182	1.8353	2.0215	1.461	1.5608	1.517	1.5329	1.8767	1.3622		
		1.6348	1.4068	1.4407	1.161	0.9043	1.3487	1.6851	1.2094	2.0347	1.6563	1.6474	1.3126		
		
2:20	23.10	1.3018	1.8329	1.4979	1.977	1.0153	1.1291	1.4335	1.4471	1.3798	1.7539	1.6365	1.4111		
		1.282	1.7755	1.3383	1.628	1.7759	1.1492	0.9253	1.6201	1.6712	1.2597	1.7165	1.5571		
		1.1044	0.6968	0.8579	1.5208	0.3636	1.2301	1.3069	1.6021	1.0199	1.1275	1.8278	1.762		
		1.9956	1.8603	1.0921	0.7112	1.5245	0.5966	1.2167	1.5099	1.0164	1.1458	0.6783	1.7683		
		1.8548	1.0304	0.7376	1.6754	1.5568	0.727	1.3767	1.8568	1.5852	1.0892	1.6646	0.4379		
		1.6991	1.6641	1.1278	1.0411	1.382	1.5152	1.3201	1.4766	1.699	1.4351	1.4252	1.1966		
		0.7027	1.2026	0.6221	0.986	1.9326	2.0236	1.2591	1.5293	1.6753	1.4958	1.8287	1.4086		
		1.6487	1.2472	1.4321	0.9684	0.7726	1.1612	1.526	1.0582	2.0055	1.7246	1.7428	1.4169		
		
2:40	23.20	1.4471	1.8928	1.515	1.5878	1.2109	1.2532	1.4014	1.3396	0.9221	1.8221	1.5877	1.4989		
		1.1598	1.7063	1.2609	1.5916	1.7966	1.1522	1.5174	1.628	1.6427	1.1437	1.7407	1.4594		
		1.0043	0.904	0.838	1.5644	0.7513	1.3273	1.2697	1.5549	1.0194	1.0635	1.8554	1.7494		
		1.9467	1.8409	1.0818	0.8385	1.2133	0.7905	0.7086	1.4494	1.0196	1.2709	0.7097	1.7298		
		1.9088	0.9231	0.8758	1.6436	1.5783	0.6793	1.3248	1.7638	1.5786	1.1787	1.6339	0.4563		
		1.6916	1.6917	1.3083	1.1013	1.6245	1.5629	1.4053	1.6259	1.6032	0.8897	1.1848	1.2773		
		0.937	1.1406	1.0664	1.1721	1.9408	1.992	1.0319	1.4894	1.6768	1.4327	1.8294	1.2463		
		1.6238	1.3441	1.341	1.0461	0.9124	1.0933	1.7285	1.0036	2.0256	1.668	1.6891	1.5897		
		
~End
Instrument type: Instrument serial number:
