##BLOCKS= 2          
Note:~End
Plate:	Plate#1	1.3	PlateFormat	Well Scan	Absorbance	Raw	FALSE	9	Fill	3				1	600	1	12	96	1	8	None	
	Temperature(¡C)	1	2	3	4	5	6	7	8	9	10	11	12		
0:00	23.30	0.678	1.2627	0.8606	0.9383	0.9881	0.8521	1.3539	0.8203	1.293	0.5974	1.2307	0.6844		
		1.0577	1.5302	1.4255	1.5018	1.3079	0.4989	0.989	1.6026	1.3561	1.1375	1.0429	1.2977		
		1.3919	1.4396	1.2294	1.392	0.8191	0.5948	1.3617	1.3226	1.2369	0.675	0.9768	0.9178		
		1.1335	0.9276	1.0457	1.4326	0.8098	0.7317	0.3503	0.6333	1.4546	0.9781	0.7571	1.0637		
		1.3556	0.9495	0.9311	1.2446	0.7972	0.7013	1.7945	1.5509	1.3562	1.2281	1.5301	1.5331		
		1.1775	0.6699	0.83	1.0626	1.0585	0.259	0.7855	1.2531	1.2146	0.4409	1.2217	1.2691		
		1.2793	0.8063	1.4544	0.7408	0.8864	1.3164	1.1623	1.6121	1.2191	1.1447	1.584	1.1645		
		0.9405	1.5535	1.5034	1.3231	0.927	1.2151	1.3648	1.3023	1.0706	1.1392	1.3979	1.178		
		
0:20	23.40	0.8791	1.0587	0.4451	0.8353	1.1126	0.9722	1.3117	0.9357	0.4132	0.6795	0.9428	0.8854		
		0.8896	1.6349	1.388	1.4435	1.265	0.5907	0.6869	1.4748	1.3516	0.8742	1.0604	1.263		
		0.7824	0.6453	0.888	1.3902	1.0504	0.2557	1.0292	1.3558	1.3086	0.7404	0.7734	0.8601		
		1.0256	0.9359	0.6674	1.4005	1.1018	0.8642	0.4932	1.2632	1.3486	0.9429	0.7758	0.9125		
		0.9933	1.2524	0.7923	1.5063	0.9578	0.4566	1.7188	1.4391	0.8858	1.1525	1.2803	0.4718		
		0.9695	0.6569	0.7837	1.0795	1.4152	0.9085	0.8328	1.4886	0.7117	0.4916	0.9379	1.2904		
		0.824	0.6512	0.9402	0.8666	0.7475	1.2605	0.4468	1.4692	1.3244	1.5165	1.5369	0.769		
		0.3586	0.9819	1.4118	1.2969	1.2465	0.8431	1.1028	1.1424	0.8481	0.8591	1.3687	1.0275		
		
0:40	23.40	1.1535	1.1676	0.7753	1.3571	1.133	1.2039	1.3285	1.1051	0.5708	0.5369	0.9335	0.8894		
		0.9006	1.5781	1.4383	1.5573	1.3323	0.2745	0.5741	1.3207	1.3767	1.0282	1.1943	1.3955		
		0.5628	0.4583	1.0164	1.6822	1.3785	0.5689	0.8517	1.2006	1.3294	1.0877	1.0115	0.7903		
		1.1975	0.9405	0.6144	0.9789	0.9812	0.8109	0.6384	1.8053	1.2323	0.871	0.8743	1.2025		
		1.2232	1.1448	0.9431	1.3404	1.6082	0.4135	1.3307	1.3753	0.8822	1.287	1.3365	0.2753		
		1.0479	1.0232	1.3216	1.2849	1.4774	0.7939	1.1188	1.5685	0.8784	1.1867	1.4178	1.4198		
		1.1277	1.2653	1.0671	1.4005	0.7279	1.4396	0.5078	1.5418	1.4356	1.7376	1.5285	0.7722		
		1.0853	1.719	1.184	0.8292	1.1087	0.312	1.3696	1.0982	1.0406	1.0983	1.5339	1.1254		
		
1:00	23.40	0.6886	1.2698	0.6908	0.7482	0.8553	0.8966	1.3721	1.3238	0.6348	0.5958	1.1054	0.6809		
		0.9761	1.2735	1.3342	1.3238	1.2949	0.7018	0.8779	1.4239	1.3026	0.4072	0.946	1.2869		
		0.9293	0.7476	1.0459	1.3685	0.2959	0.6903	1.2398	1.3991	1.1416	0.9032	0.7324	0.8483		
		1.0632	0.8774	0.6519	1.6172	0.8329	0.9286	0.4652	0.5662	1.267	0.9474	0.7292	1.0102		
		1.0768	1.2649	1.0619	1.3353	0.219	0.7278	1.7559	1.5918	0.9563	1.3271	1.3626	1.3542		
		0.9879	1.1401	1.286	1.0423	0.9781	0.322	1.1628	1.2371	1.0865	0.2443	1.3058	1.4557		
		1.2444	0.5639	1.1219	0.5853	0.8806	1.3743	1.7896	1.132	1.3131	1.2293	1.4962	0.9599		
		0.7609	0.926	1.5571	1.5085	0.6178	0.5874	1.399	1.0501	1.1322	0.6658	1.3069	0.976		
		
1:20	23.50	0.6923	1.2265	0.2599	0.9314	0.9263	0.8862	1.281	0.9977	0.2709	0.5142	1.0785	0.7601		
		0.8213	1.1325	1.1925	1.2084	1.2768	0.2835	0.3469	1.1512	1.3582	0.2798	0.8416	1.2631		
		0.4476	0.3239	0.8589	1.3865	0.3429	0.2646	0.572	1.4195	1.1566	0.6848	0.6374	0.7514		
		0.7452	0.6049	0.6879	1.0371	0.7236	0.7526	0.5242	0.4319	1.1209	0.8684	0.7228	0.9984		
		0.9334	1.0777	0.902	1.1589	0.2392	0.2509	1.588	1.5734	0.6161	1.1349	1.3051	0.3268		
		0.8903	0.9027	0.6731	0.8135	1.2318	0.968	0.8394	1.3263	0.5479	0.2534	1.2907	1.3783		
		0.9205	0.5993	0.7815	0.4337	0.8107	1.4344	0.4667	1.1462	1.3591	1.3283	1.3639	0.5463		
		0.4554	0.6782	1.2812	1.1868	0.5438	0.2961	1.0882	1.072	1.0748	1.2469	1.3294	0.9773		
		
1:40	23.50	1.0249	1.315	0.324	1.2302	0.9508	1.1103	1.3577	0.5359	0.8202	0.6874	1.0195	0.7641		
		0.8115	1.3763	1.0985	1.3312	1.318	0.2117	0.4821	1.2166	1.5075	0.6085	1.0557	1.2292		
		0.3154	0.5635	0.8026	1.6544	0.2907	0.4217	0.5694	1.4108	0.9645	0.7206	0.743	0.8193		
		0.8909	0.4917	1.1052	0.8639	1.0122	0.9185	1.2523	1.2466	1.1912	0.8923	0.8229	0.9929		
		1.2758	0.9668	1.0694	1.335	1.2377	0.5372	1.3128	1.3681	0.8537	1.1275	1.5143	0.2453		
		0.9905	0.7049	0.831	1.0139	1.3272	1.5574	0.7447	1.5935	0.6313	0.4804	1.0734	1.4344		
		1.1777	0.9227	1.2699	0.5872	1.0482	1.1525	0.4577	1.3702	1.4282	1.4091	1.4164	0.6662		
		1.8022	1.126	0.9581	0.6599	0.7417	0.3357	1.0665	1.0607	1.1295	1.3158	1.5797	1.2021		
		
2:00	23.60	1.0073	1.1343	1.1968	1.2038	1.2838	1.1556	1.5841	1.5721	1.1822	0.9797	1.3583	0.7781		
		1.1923	1.375	1.2554	1.6402	1.3864	0.6008	0.9937	1.359	1.525	0.8494	1.235	1.3151		
		1.1113	0.5009	1.1829	1.4455	1.076	0.8809	0.8993	1.4257	1.1099	1.4057	0.9211	1.2105		
		1.1901	0.985	0.8535	1.1879	1.1706	1.2166	1.5185	1.4342	1.0571	1.1305	0.9173	1.1286		
		1.3386	1.1254	0.7825	1.3	0.5479	1.4787	1.6854	1.7969	1.4574	1.4527	1.1668	1.2083		
		1.0853	1.2061	0.8133	1.0149	1.2125	0.9195	1.2231	1.5052	0.9938	0.7505	1.114	1.5079		
		1.4245	0.7352	0.791	0.8863	1.1549	0.8855	1.9111	1.2451	1.5703	1.3264	1.4033	0.9062		
		0.4503	0.8009	1.4788	1.1741	0.6927	0.4	1.0761	1.1064	1.2254	1.0348	1.2657	1.103		
		
2:20	23.60	0.7981	1.525	0.6468	1.2945	1.1813	1.1013	1.4745	1.4256	1.0703	1.266	1.3568	0.7183		
		1.0427	1.2395	1.1266	1.4984	1.3388	0.599	0.6951	1.2596	1.4258	0.6206	1.0097	1.3078		
		0.4433	0.6334	0.9903	1.3657	0.4899	0.3054	0.5205	1.3767	0.8922	1.4397	0.7404	0.9805		
		0.845	0.5155	0.7463	0.7962	0.7816	1.1853	1.799	0.4399	1.0217	0.9604	0.7909	1.0121		
		1.1578	0.9595	0.731	1.1067	0.4376	0.633	1.3543	1.7922	1.1197	1.3275	1.1581	0.7809		
		0.8851	1.0478	0.716	0.828	1.1976	1.0009	1.1934	1.3296	0.6345	1.0953	0.9618	1.4369		
		1.1284	1.0077	0.8089	0.9438	1.5227	1.0436	0.966	1.2326	1.3755	1.1877	1.2891	1.007		
		0.4679	0.4753	1.0851	0.8123	1.2775	0.4205	1.1566	1.0563	1.3342	1.2382	1.273	1.2528		
		
2:40	23.60	1.6624	1.4885	1.0677	1.6356	1.2695	1.1776	1.6384	1.4212	0.8356	1.283	1.198	1.1022		
		1.1663	1.1977	1.0857	1.49	1.417	0.4369	1.0732	1.4755	1.4593	0.831	1.0645	1.2991		
		0.4046	1.4933	1.0324	1.5728	0.6466	1.0381	0.7583	1.7451	0.8884	1.1923	0.9566	0.9248		
		1.1883	1.0043	0.9358	0.8408	1.2616	1.1871	1.5236	1.1844	1.3785	1.0821	1.0027	1.0607		
		1.4621	0.9101	0.9161	1.2408	1.2597	0.8007	1.669	1.5674	1.0074	1.2688	1.328	0.5056		
		1.0724	1.0927	1.3018	1.0978	1.126	1.6873	1.1301	1.3608	1.1533	0.7816	0.9613	1.3971		
		1.1115	1.5499	0.9824	0.8064	1.6579	1.1319	1.319	1.2298	1.4568	1.2559	1.3544	0.9939		
		1.1186	0.4374	1.2197	0.8541	0.6762	1.2879	1.542	0.9937	1.4106	1.0377	1.4946	1.4348		
		
~End
Instrument type: Instrument serial number:
