##BLOCKS= 2          
Note:~End
Plate:	Plate#1	1.3	PlateFormat	Well Scan	Absorbance	Raw	FALSE	9	Fill	3				1	600	1	12	96	1	8	None	
	Temperature(¡C)	1	2	3	4	5	6	7	8	9	10	11	12		
0:00	22.60	1.4932	1.432	1.1282	1.3503	1.1953	1.2785	1.4818	1.1937	1.369	0.906	1.4448	1.1386		
		1.1706	1.6701	1.5454	1.2676	1.2976	1.3992	0.817	1.191	1.2003	1.0534	0.9543	1.0905		
		1.5423	1.6182	1.7128	1.4774	1.5138	1.3926	1.309	1.5142	1.5057	1.3645	1.5453	1.0924		
		1.2203	1.3459	1.292	1.5567	1.4712	1.6961	1.3966	1.421	1.6684	1.1847	1.4348	1.051		
		1.4737	1.514	1.5077	1.1314	1.2874	1.3093	1.6192	1.2755	1.3831	1.3897	1.3644	1.4841		
		1.3599	1.4602	1.3398	1.5578	1.5272	0.8281	1.2088	1.5709	1.4485	1.3379	1.0578	1.4766		
		1.1048	1.2688	1.1933	1.5554	1.407	1.3597	0.8278	1.5816	1.4495	1.2317	1.2051	0.8952		
		1.5846	1.1997	1.22	1.31	1.1523	1.1086	0.9582	1.112	1.5475	1.2992	1.2211	1.2201		
		
0:20	22.60	1.2357	0.9659	0.7633	1.0397	0.5751	0.8121	0.9304	0.6669	1.0472	0.6385	1.1543	0.9804		
		1.0978	1.721	0.7931	0.8638	1.3283	0.9617	0.394	0.4716	1.1774	0.5419	0.3433	1.4035		
		1.4887	1.3861	0.9227	1.2837	1.416	0.5984	0.4712	1.2615	1.5283	1.0013	1.4374	0.7029		
		0.779	0.986	0.9846	0.7762	1.5407	1.4493	1.4915	1.3459	1.2179	0.4614	1.2181	0.592		
		1.4227	1.345	1.2406	0.9745	1.0477	1.0496	1.4269	0.7408	0.9964	0.9077	1.2401	1.0951		
		0.965	1.2606	1.3205	1.4269	1.4181	0.422	1.2218	1.4078	1.2623	1.0038	0.9337	1.3346		
		0.785	0.7324	0.71	1.4328	0.7206	0.5437	0.6151	1.3415	0.9681	0.8729	0.9103	0.5828		
		1.2894	0.8619	0.4865	1.0973	0.5183	1.0588	0.6187	0.6923	1.2172	1.1196	0.9075	1.0582		
		
0:40	22.60	1.0032	0.8245	0.7875	0.8772	0.5467	0.5418	0.6527	0.3692	0.7699	0.5085	0.9554	0.837		
		1.2527	1.726	0.4746	0.7316	1.259	0.3661	0.3085	0.2985	1.2582	0.5044	0.4504	1.5703		
		1.4944	1.2995	0.7914	1.2589	1.4773	0.3964	0.4033	1.3008	1.5353	0.9495	1.4212	0.6236		
		0.6977	0.853	1.2707	0.4396	1.5587	1.4146	1.5566	1.5211	0.8416	0.5308	1.1894	0.4408		
		1.3833	1.3797	0.9353	0.9068	0.9645	1.015	1.5641	1.2453	1.0066	0.7952	1.2143	0.9989		
		0.7787	1.0693	1.3215	1.4337	1.2529	0.5326	0.5186	1.3916	1.2428	0.7053	0.9569	1.2986		
		0.4063	0.4677	0.6351	1.3586	0.835	0.3692	0.8508	1.3639	0.8306	1.0152	0.8084	0.6313		
		0.8696	0.7107	0.3725	0.9163	0.5406	1.2958	0.3749	0.854	1.0743	1.0034	0.8038	0.907		
		
1:00	22.60	1.512	1.181	1.093	1.2321	1.2092	0.9308	1.4491	1.3877	0.9976	0.935	1.2116	1.2089		
		1.3297	1.7478	1.303	1.3418	1.3248	1.4432	0.8168	1.2182	1.6113	1.1627	1.0351	1.2358		
		1.4441	1.5175	1.059	1.5979	1.4273	0.9693	1.0802	1.4656	1.5879	1.4297	1.6315	1.1842		
		1.1717	1.2865	1.1808	0.7893	1.3951	1.621	1.4308	1.4468	1.6113	1.2244	1.4254	1.2012		
		1.5922	1.4504	1.2753	1.0973	1.321	1.1565	1.5086	1.0204	1.1158	1.2163	1.4614	1.4747		
		1.2613	1.4888	1.3556	1.5779	1.4743	0.9518	1.4332	1.4413	1.5372	1.0931	1.258	1.4327		
		1.3776	1.089	1.2207	1.4248	1.2207	1.0589	0.6898	1.5437	1.4994	1.2777	0.9319	0.8943		
		1.6511	1.5401	1.2758	1.1001	1.0124	1.1965	0.8031	1.0616	1.4682	1.1828	1.2195	0.9497		
		
1:20	22.70	1.1639	0.8158	0.7881	1.026	0.4472	0.3284	0.8634	0.8048	0.7819	0.59	1.2295	0.983		
		1.1995	1.7241	0.445	0.7502	1.2559	0.9069	0.4712	0.4051	1.1259	0.5878	0.4398	1.0667		
		1.4618	1.339	0.4382	1.383	1.33	0.3911	0.4199	1.2427	1.5376	1.103	1.4764	0.78		
		0.7647	1.0728	1.2484	0.5516	1.5262	1.4482	1.3843	1.3444	1.2405	0.3923	1.268	0.5613		
		1.3912	1.3812	0.751	0.9418	1.0743	0.6898	1.2865	0.6644	0.5017	0.7704	1.2334	1.0782		
		1.1284	1.1779	1.23	1.3942	1.2809	0.3385	0.5569	1.3927	1.403	0.7449	1.058	1.4199		
		0.6385	0.666	0.6327	1.323	0.358	0.4099	0.3309	1.3984	1.0545	0.6046	0.5489	0.5975		
		1.1852	1.0019	0.467	0.8364	0.3703	0.925	0.5707	0.3904	1.3318	1.0077	0.9169	0.77		
		
1:40	22.70	1.0125	0.7625	0.7573	0.885	0.2645	0.573	0.6887	0.4499	0.7036	0.4641	0.916	0.9666		
		1.2136	1.6919	0.4741	0.6983	1.2983	0.3864	0.3227	0.3583	1.1639	0.45	0.8282	1.2601		
		1.4989	1.3436	0.2647	1.175	1.3981	0.3149	0.3985	1.2941	1.5485	0.9387	1.4541	0.6553		
		0.7526	1.0595	1.4953	0.4925	1.521	1.2997	1.4852	1.4911	0.7742	0.5334	1.2117	0.4188		
		1.2919	1.3798	0.535	0.8306	1.09	0.7821	1.3465	1.1756	0.4862	0.5531	1.0849	0.9108		
		0.7396	1.1731	1.3507	1.4554	1.3005	0.3959	0.2813	1.464	1.4017	0.4252	1.0739	1.3381		
		0.2911	0.621	0.5531	1.3948	0.4541	0.4101	0.39	1.3935	0.7954	0.6138	0.5924	0.7227		
		0.7215	0.7448	0.3392	0.7914	0.3247	1.2113	0.3355	0.3171	1.2176	1.1028	0.8379	0.7362		
		
2:00	22.70	1.1946	1.142	1.0492	1.1189	1.0592	1.0382	1.1968	1.24	0.9825	0.9779	1.1617	1.0574		
		1.1336	1.2378	1.0663	1.1488	1.1416	1.0189	1.0365	1.1743	1.1588	1.1399	0.9152	1.1165		
		1.3086	1.172	0.8646	1.2006	1.2089	1.0303	1.2048	1.2174	1.2272	1.1505	1.1541	1.0584		
		1.1755	1.1569	1.0875	0.8238	1.211	1.2054	1.2649	1.1851	1.2091	1.274	1.0753	1.1101		
		1.2867	1.1352	1.2086	1.1094	1.2509	1.2145	1.3624	1.1594	1.1317	1.1751	1.2209	1.1318		
		1.0327	1.2414	1.152	1.2581	1.1678	0.8446	1.2162	1.2102	1.2331	0.9784	1.0644	1.1479		
		1.0119	1.012	1.1969	1.2049	0.7308	0.99	1.0832	1.298	1.3276	1.23	0.8955	0.927		
		1.4512	1.2425	1.2413	1.1862	1.1398	1.0544	1.1664	1.2225	1.3269	1.2435	1.2778	1.0485		
		
2:20	22.80	1.2044	1.0967	1.0339	1.1511	1.1579	0.8432	1.2653	1.178	0.893	1.0279	1.4951	1.141		
		1.3126	1.453	0.9688	1.0664	1.4372	1.3845	1.4152	1.34	1.3594	1.2719	0.7268	1.1168		
		1.5543	1.5022	0.5106	1.5243	1.3921	0.7154	1.1147	1.4317	1.5537	1.4222	1.6543	1.0491		
		1.0273	1.1901	1.4215	0.6986	1.3508	1.6254	1.4332	1.3138	0.9642	0.9897	1.2158	0.9434		
		1.5053	1.4257	0.9824	1.0795	1.153	1.0954	1.4559	1.1476	0.5549	1.1212	1.3229	1.3089		
		1.1444	1.4063	1.268	1.4666	1.301	0.5969	0.5549	1.3999	1.5793	1.6897	0.8639	1.5079		
		0.8991	1.2314	0.8137	1.3606	0.5192	0.8954	0.86	1.468	1.3891	0.7531	0.5861	0.8088		
		1.5649	1.412	0.6443	0.9359	0.4635	1.0785	1.3341	0.5835	1.4026	1.0869	1.0345	0.8432		
		
2:40	22.80	1.2098	0.911	0.9505	1.136	0.6185	0.9172	1.0485	0.9861	0.8904	0.817	1.1561	1.106		
		1.1787	1.3764	0.7919	0.9565	1.3388	1.3399	0.7654	1.1949	1.2862	1.1012	0.8334	0.968		
		1.5633	1.5389	0.3186	1.3736	1.5263	0.5725	0.8012	1.3995	1.6811	1.1199	1.5602	0.8697		
		1.0725	1.2267	1.6405	0.4716	1.4016	1.5438	1.3165	1.3578	0.9965	0.9307	1.2366	0.7068		
		1.403	1.45	0.885	0.9314	1.1602	1.1766	1.2512	1.5257	0.4228	0.7148	1.2309	1.0752		
		1.0196	1.2618	1.1521	1.4538	1.3431	0.9374	0.4087	1.4154	1.5878	1.3154	1.1105	1.4522		
		0.7793	1.4608	0.6412	1.5055	0.8165	1.1765	0.9875	1.4659	1.1552	0.5449	0.5756	1.1025		
		1.271	1.2657	0.4437	0.8823	0.376	1.2258	1.0326	0.521	1.3171	0.9937	0.8454	0.7617		
		
~End
Instrument type: Instrument serial number:
