##BLOCKS= 2          
Note:~End
Plate:	Plate#1	1.3	PlateFormat	Well Scan	Absorbance	Raw	FALSE	9	Fill	3				1	600	1	12	96	1	8	None	
	Temperature(¡C)	1	2	3	4	5	6	7	8	9	10	11	12		
0:00	23.00	1.5099	0.6943	1.0421	1.5768	1.6048	1.2624	1.5879	1.6924	1.4483	1.3071	1.7012	1.438		
		1.7198	1.7304	1.4128	0.9563	1.5796	0.3474	1.4822	1.6623	1.7875	0.6581	1.4533	1.3151		
		1.0408	1.7034	0.9361	1.0238	1.9017	1.9532	0.5651	1.63	1.5534	1.5521	1.72	0.9541		
		1.1545	0.7283	1.5206	0.8172	0.9057	1.4131	0.7738	1.1175	2.0616	1.4839	1.7002	1.2906		
		0.2436	0.861	0.7373	1.6015	1.6087	0.3404	1.1931	1.6332	0.8701	0.8635	1.889	1.9352		
		1.7332	1.7749	1.3542	0.9249	1.5427	1.2471	1.2919	0.4897	1.5699	0.9118	1.0761	1.6113		
		1.541	1.6672	1.2947	1.5309	1.6289	0.4198	0.4627	1.6156	1.5127	1.4815	1.6779	0.9917		
		1.5384	1.6722	1.821	0.7634	1.3285	1.2795	1.0057	1.0374	1.7732	1.5505	1.675	1.4475		
		
0:20	23.00	1.5525	0.7152	1.036	1.5785	1.6039	1.3183	1.5457	1.7115	1.6553	1.2932	1.7345	1.4767		
		1.7201	1.7186	1.2396	0.8819	1.6325	0.7558	1.5351	1.6997	1.7382	1.1346	1.6356	1.3437		
		1.094	1.7053	0.8466	0.7124	1.8731	1.935	0.3676	1.6007	1.5349	1.5652	1.6753	0.9835		
		1.2766	1.0424	1.5996	1.0745	1.0984	1.4927	0.8066	0.9714	2.0748	1.5778	1.7172	1.4298		
		0.3755	0.8069	0.803	1.605	1.6242	0.8794	1.1785	1.7259	0.8161	0.9228	1.8746	1.9559		
		1.6826	1.8081	1.382	0.8368	1.5608	1.2607	1.2116	1.3317	1.5614	0.8832	1.2347	1.7495		
		1.5685	1.6841	0.9554	1.5337	1.6824	0.4819	0.5387	1.6152	1.5354	1.4681	1.6675	0.9582		
		1.5421	1.6721	1.8401	0.7085	1.1706	1.1877	1.4686	0.7626	1.8683	1.5332	1.6893	1.5271		
		
0:40	23.10	1.7079	0.9066	1.0539	1.5243	1.5222	1.4878	1.538	1.765	1.6591	1.3938	1.6954	1.4654		
		1.7714	1.8735	1.3274	0.9868	1.6272	0.5266	1.6665	1.7236	1.8175	1.2601	1.5167	1.5173		
		1.0099	1.825	1.041	0.9927	1.9025	1.9888	0.615	1.7021	1.5707	1.6326	1.8298	1.1324		
		1.1154	1.2925	1.5181	1.0994	1.0943	1.8308	0.9137	0.938	1.9153	1.4427	1.8274	1.4844		
		0.7379	0.8506	0.9507	1.65	1.5579	0.8131	1.16	1.8205	0.8533	1.0961	1.3137	2.0115		
		1.6422	1.89	1.2687	1.0407	1.5836	1.2921	1.3179	0.7162	1.333	1.028	1.0993	1.6488		
		1.6207	1.7615	0.9837	1.591	1.6663	0.3453	1.1568	1.778	1.6384	1.5132	1.8335	1.1257		
		1.5616	1.6614	1.9262	0.8793	0.9908	1.3666	1.6388	0.8935	2.0885	1.5594	1.7995	1.6629		
		
1:00	23.10	1.4206	0.791	1.078	1.5642	1.5394	1.3048	1.5743	1.6757	1.285	1.3619	1.6434	1.4481		
		1.7291	1.6685	1.1984	0.968	1.5805	0.3242	1.4335	1.6473	1.7874	0.7993	1.5323	1.2573		
		1.0659	1.7443	0.8326	0.7668	1.9198	1.9608	0.4396	1.6119	1.5612	1.6334	1.6693	1.1543		
		1.1359	0.6115	1.5483	0.836	0.8435	1.0603	0.305	1.1113	2.0208	1.4837	1.7078	1.3723		
		0.2099	0.7248	0.7637	1.6754	1.5701	0.3396	1.1997	1.7269	0.9102	0.858	1.8786	1.9403		
		1.7332	1.7907	1.2629	0.995	1.575	1.2643	1.2646	0.5551	1.5636	0.9228	1.0654	1.5252		
		1.5637	1.682	1.4208	1.5863	1.6936	0.5189	0.3991	1.6153	1.5371	1.4406	1.6087	1.0725		
		1.56	1.6784	1.8832	0.6321	0.9584	1.2864	0.836	1.0913	1.8448	1.5689	1.6869	1.486		
		
1:20	23.10	1.4845	0.7145	1.102	1.4804	1.5613	1.3648	1.5475	1.6798	1.5142	1.3241	1.6671	1.4591		
		1.7158	1.6766	1.1212	0.8893	1.5535	0.6123	1.5083	1.6703	1.7845	0.8786	1.5844	1.3164		
		1.0802	1.7111	0.8785	0.6675	1.8201	1.933	0.3436	1.5982	1.5513	1.6306	1.6256	1.0617		
		1.14	1.0009	1.5874	0.8665	1.012	1.2233	0.2646	1.2845	1.9644	1.5266	1.7063	1.4415		
		0.3653	0.7525	0.844	1.6111	1.5658	0.8808	1.1448	1.7469	0.8246	1.0075	1.8615	1.9422		
		1.6662	1.7903	1.2701	0.9519	1.6	1.1385	1.1939	1.2672	1.558	0.909	1.0991	1.6958		
		1.6024	1.6547	1.3856	1.5556	1.6682	0.5519	0.5558	1.5835	1.501	1.3714	1.6247	1.0668		
		1.5646	1.6897	1.8531	0.5472	0.7795	1.3208	1.1933	0.7938	1.9734	1.534	1.7062	1.5763		
		
1:40	23.20	1.7193	0.8236	1.0973	1.3971	1.5682	1.3909	1.5217	1.7717	1.6044	1.335	1.596	1.5875		
		1.7618	1.8746	1.2412	0.9933	1.5958	1.2404	1.6681	1.6909	1.8321	1.091	1.5302	1.4355		
		1.0367	1.8281	1.0665	0.8501	1.9349	1.9829	0.6189	1.7051	1.6075	1.6347	1.863	1.1518		
		1.3087	0.59	1.5774	0.9552	1.0467	1.3992	0.7453	1.1878	2.0098	1.5525	1.8155	1.5566		
		0.9126	0.8569	1.1539	1.587	1.5558	0.716	1.2214	1.8252	0.8924	1.0848	1.8453	2.0017		
		1.6463	1.8775	1.5875	1.0186	1.6337	1.0604	1.4131	0.5339	1.4194	1.1203	1.301	1.7683		
		1.6098	1.7318	1.2978	1.6061	1.6596	0.3429	0.8272	1.7162	1.6179	1.4679	1.8611	1.319		
		1.508	1.6933	1.9514	1.217	0.966	1.5726	1.2394	0.8009	2.1829	1.5687	1.7617	1.6803		
		
2:00	23.20	1.6417	1.0306	1.2822	1.5112	1.4855	1.2908	1.5145	1.7484	1.5439	1.3915	1.7233	1.5458		
		1.7677	1.7936	1.216	1.0873	1.6099	0.7872	1.5628	1.6129	1.8704	1.1358	1.5439	1.3331		
		1.0849	1.9327	1.0923	0.9726	1.8664	1.9852	0.4817	1.7395	1.6318	1.6597	1.858	1.2689		
		1.0923	0.7915	1.6016	0.8892	0.9322	0.9327	0.3239	1.4906	1.9604	1.5818	1.8119	1.486		
		0.607	0.8816	0.8615	1.5912	1.4801	0.5428	1.3473	1.8303	1.1863	1.2168	1.9381	1.9783		
		1.7913	1.8916	1.3403	1.1432	1.6057	1.2658	1.3391	0.7645	1.6673	1.044	1.09	1.6293		
		1.6545	1.7091	1.4076	1.5943	1.6859	1.1762	0.7281	1.6913	1.6251	1.4543	1.7925	1.1677		
		1.6956	1.7205	1.9356	0.9568	0.8664	1.4916	1.2746	1.3278	1.8809	1.6644	1.7665	1.6009		
		
2:20	23.20	1.7237	0.9826	1.27	1.4692	1.5082	1.236	1.5251	1.7279	1.4911	1.3546	1.6978	1.5316		
		1.7871	1.8332	1.1901	0.9602	1.6679	0.6709	1.7079	1.6043	1.7955	1.0673	1.3456	1.4139		
		0.9865	1.9031	1.137	0.997	1.897	2.0059	0.4347	1.7154	1.6002	1.6646	1.7802	1.1298		
		1.0703	0.6963	1.6369	0.8871	1.1209	1.1575	0.3074	1.1742	1.9602	1.5438	1.7793	1.4767		
		1.1068	0.8657	0.8457	1.6376	1.5618	0.6199	1.2012	1.8623	1.0436	1.0589	1.9375	1.9784		
		1.7187	1.8165	1.3111	1.0971	1.7099	1.2145	1.1984	1.2438	1.6263	0.9901	1.0282	1.7855		
		1.6105	1.7391	1.4938	1.6119	1.6768	0.8568	0.897	1.6898	1.5827	1.3896	1.804	1.1077		
		1.6845	1.7582	1.9262	0.7798	1.0838	1.5462	1.2689	0.979	2.0314	1.6231	1.7686	1.6764		
		
2:40	23.30	1.8044	1.0294	1.2111	1.4729	1.5224	1.2032	1.6013	1.7443	1.51	1.3709	1.569	1.5067		
		1.7035	1.6908	1.3724	1.2075	1.6794	0.7562	1.7261	1.495	1.6516	1.1578	1.2551	1.4802		
		1.0628	1.8228	1.2285	1.2248	1.9914	1.936	0.7832	1.6763	1.6566	1.6688	1.867	1.2706		
		1.1746	0.8303	1.6139	0.9973	1.0542	1.4229	0.7604	1.1313	1.9726	1.5814	1.7928	1.4651		
		1.1113	1.0883	1.3944	1.6541	1.5526	1.4768	1.2546	1.8127	1.0723	1.3495	1.6298	1.8748		
		1.6759	1.7644	1.3662	1.1876	1.6765	1.164	1.3311	0.8816	1.51	1.2533	1.0873	1.6334		
		1.559	1.6791	1.6739	1.6394	1.616	0.9002	1.4121	1.6904	1.7042	1.487	1.8096	1.3987		
		1.6658	1.7478	1.904	1.2961	0.9303	1.3557	1.2833	1.1968	2.0634	1.623	1.779	1.5367		
		
~End
Instrument type: Instrument serial number:
