##BLOCKS= 2          
Note:~End
Plate:	Plate#1	1.3	PlateFormat	Well Scan	Absorbance	Raw	FALSE	9	Fill	3				1	600	1	12	96	1	8	None	
	Temperature(¡C)	1	2	3	4	5	6	7	8	9	10	11	12		
0:00	23.20	1.0067	1.7264	1.5553	1.6088	0.9434	0.8011	1.3852	1.0658	0.3756	1.2566	1.6381	0.9162		
		1.0238	1.7676	1.5287	1.5834	1.4166	0.7692	0.5265	1.6883	1.4559	1.3572	1.6319	1.4324		
		1.2863	0.6644	0.7795	1.4379	0.7213	0.6215	1.1694	1.3572	1.1227	1.1609	1.7959	1.5464		
		1.8336	1.4957	0.9595	1.2105	1.0705	0.5861	0.3273	1.3652	1.5251	0.8109	0.7247	1.4696		
		1.5045	0.9114	0.8975	1.3518	1.2952	0.8765	1.7232	1.4945	1.6957	1.1127	1.6199	0.8094		
		1.5934	1.0086	0.9335	1.1714	1.1629	1.3222	1.0781	1.4812	1.5295	0.3029	1.3265	1.1962		
		0.7455	1.0792	1.2007	0.8313	1.5353	1.729	1.298	1.6356	1.4976	1.2673	1.7934	0.9063		
		0.8285	1.3991	1.4787	1.3152	1.0584	1.2696	1.6424	1.2214	1.8276	1.7211	1.7807	1.2594		
		
0:20	23.20	1.0783	1.5888	1.6468	1.4776	1.0154	0.9289	1.3678	1.1793	0.2579	1.3793	1.4142	1.1755		
		0.9421	1.7548	1.5281	1.5698	1.4131	0.9014	0.8925	1.6076	1.2661	0.5762	1.6409	1.4088		
		0.8565	0.6127	0.6891	1.5158	0.9609	0.5645	1.5009	1.3656	1.3065	1.0305	1.7072	1.5316		
		1.8487	1.4969	0.6401	1.1366	1.2047	0.4646	0.4813	1.529	1.2945	0.8754	0.8699	1.378		
		1.355	1.0057	0.8056	1.6445	1.4996	0.4036	1.7851	1.5527	1.5387	1.0696	1.4987	0.2639		
		1.5145	1.0227	0.7413	0.9786	1.4155	1.6331	1.0321	1.6809	1.0224	0.6257	1.1588	1.3042		
		0.708	0.9543	1.0102	0.7199	1.5921	1.7481	0.5497	1.5377	1.5093	1.5613	1.7225	0.7159		
		0.4599	1.0875	1.5217	1.3171	1.3116	0.9164	1.575	0.8996	1.8008	1.76	1.7542	1.0585		
		
0:40	23.20	1.3156	1.6975	1.7676	1.8908	1.0224	1.1963	1.4133	1.3411	0.6298	1.1727	1.4421	1.4875		
		1.0438	1.7476	1.515	1.6706	1.4924	0.6097	1.2152	1.4674	1.4196	1.1095	1.7297	1.5159		
		0.7258	0.7457	0.6891	1.7459	1.3161	0.6379	1.5999	1.4406	1.1146	1.2723	1.8244	1.5885		
		1.9581	1.6091	0.55	1.4941	1.0847	0.5978	0.9587	1.7413	1.2395	0.8293	0.8453	1.3055		
		1.5464	0.9754	0.6687	1.387	1.2287	0.3131	1.607	1.5389	1.5512	1.1369	1.4853	0.2713		
		1.5748	1.4776	0.8784	0.9365	1.526	1.2808	1.0195	1.7516	1.0671	1.3606	1.5715	1.443		
		0.943	1.355	1.0518	1.0773	1.5873	1.9555	0.2814	1.6076	1.518	1.7014	1.7995	0.6652		
		1.334	1.6623	1.1711	1.0939	1.2073	0.9902	1.5431	0.8232	1.6459	1.8103	1.747	1.3		
		
1:00	23.30	1.2654	1.7235	1.5979	1.6435	0.9366	0.8542	1.3775	1.3852	0.413	1.21	1.5713	1.1321		
		1.008	1.5185	1.4565	1.5185	1.4304	0.8889	0.7602	1.5654	1.328	0.5239	1.6187	1.4125		
		1.1748	0.4194	0.7223	1.411	0.2653	0.9033	1.2363	1.4303	1.0782	1.1865	1.7115	1.5402		
		1.8278	0.9645	0.7396	0.9639	1.3393	0.7814	0.5731	1.0864	1.4998	0.8172	0.7342	1.3378		
		1.3603	0.973	0.8917	1.6006	1.1639	1.0803	1.6782	1.7393	1.5965	1.1855	1.583	0.4303		
		1.5655	1.3946	0.8966	0.9545	1.0869	1.3102	0.8449	1.4615	1.5525	0.2992	1.4859	1.4471		
		1.2416	0.9165	0.9007	0.8088	1.5684	1.8613	1.6981	1.4608	1.4861	1.3858	1.7193	0.8233		
		0.8214	0.8462	1.5354	1.4362	0.8114	0.8869	1.692	1.0792	1.8285	1.6723	1.7009	1.0847		
		
1:20	23.30	1.2419	1.6799	1.534	1.6076	0.9374	0.8186	1.3241	1.1704	0.2747	1.0886	1.495	1.2365		
		0.8776	1.4465	1.4924	1.4677	1.3881	0.6541	0.4325	1.3587	1.3692	0.3405	1.5705	1.4372		
		0.5638	0.5069	0.5757	1.4332	0.3077	0.7937	1.2594	1.4255	1.1685	1.1317	1.6794	1.4867		
		1.8072	1.1226	0.7128	1.0854	1.3745	0.5577	0.5421	1.1707	1.0236	0.7793	0.8671	1.3206		
		1.2175	0.9946	0.8701	1.3376	1.2614	0.2416	1.632	1.6093	1.4863	1.0243	1.5011	0.2349		
		1.548	1.297	0.8768	0.9532	1.3374	1.385	0.8812	1.5991	1.0908	0.3223	1.4813	1.3575		
		0.8439	0.8456	0.9179	0.5858	1.7021	1.8295	0.5344	1.3779	1.5524	1.3864	1.6452	0.6601		
		0.5422	0.6315	1.3914	1.1285	0.8962	0.5608	1.64	0.9908	1.8041	1.8098	1.7295	1.1661		
		
1:40	23.40	1.3128	1.7782	1.6361	1.8049	0.7989	1.1287	1.3748	0.9514	0.8194	1.5007	1.5062	1.4097		
		0.8869	1.6041	1.2749	1.5248	1.4561	0.5791	0.6171	1.3731	1.5053	0.7514	1.7066	1.3956		
		0.5589	1.1125	0.5503	1.7036	0.2816	0.7984	1.3108	1.3275	0.9942	1.0403	1.8027	1.5411		
		1.9134	1.2746	0.7574	1.4331	1.3561	0.5939	0.4303	1.4159	0.9159	0.8848	0.8539	1.4217		
		1.6518	0.9338	1.1223	1.4758	1.1984	0.4566	1.4536	1.4771	1.5701	1.0388	1.5442	0.3194		
		1.6055	1.1978	1.1227	0.9514	1.4513	1.3356	0.8708	1.71	1.0751	0.588	1.3024	1.4496		
		0.7078	0.8895	1.2351	0.6402	1.795	1.967	0.3665	1.5869	1.5617	1.4071	1.7625	0.6082		
		1.6414	0.8961	0.9999	0.9941	0.9498	0.8616	1.7097	0.9034	1.8343	1.8203	1.8118	1.3719		
		
2:00	23.40	1.3173	1.7011	1.6667	1.8451	1.4014	1.2195	1.5067	1.5231	1.2978	1.3619	1.5685	1.2365		
		1.2081	1.6119	1.2309	1.6925	1.5501	0.7431	1.4689	1.448	1.4993	1.2491	1.7683	1.4231		
		1.0397	0.6738	0.8189	1.4775	0.7754	0.9673	1.1787	1.4064	1.0524	1.4505	1.7992	1.6929		
		1.905	1.3831	1.0733	0.9036	1.4009	0.8339	0.5794	1.2661	1.0938	0.839	0.7733	1.2467		
		1.5285	1.0221	0.7106	1.5043	1.1369	1.6253	1.4734	1.8974	1.7524	1.31	1.2743	0.6055		
		1.6044	1.5019	1.0215	1.0073	1.3996	1.257	1.1606	1.4622	1.2552	0.9102	1.467	1.5406		
		1.1174	0.9976	0.8342	0.9241	1.5058	1.8996	1.9282	1.5583	1.557	1.383	1.7707	0.9543		
		0.6126	0.9286	1.5217	0.9734	0.9209	0.5718	1.559	1.3135	1.8977	1.6748	1.6239	1.1699		
		
2:20	23.40	1.3262	1.8127	1.5199	1.8289	1.1756	1.1208	1.4879	1.5148	1.1687	1.6467	1.3822	1.1965		
		1.236	1.5793	1.483	1.6154	1.5096	0.8337	1.2693	1.3686	1.4111	1.1485	1.7149	1.4266		
		0.7077	0.9656	0.634	1.3939	0.4193	0.6352	1.0285	1.3799	0.8342	1.523	1.7931	1.5489		
		1.8562	1.2775	0.8583	1.1463	1.3611	0.713	1.0409	1.2236	0.8798	0.9141	0.7895	1.2678		
		1.385	0.9637	0.6576	1.1484	1.2478	0.7	1.2733	1.7153	1.637	1.1928	1.3358	0.4013		
		1.5866	1.4324	0.9156	0.8326	1.3596	1.5281	1.4417	1.4588	1.0449	1.3109	1.3666	1.3926		
		0.9897	1.2229	0.7609	1.035	1.874	1.8823	1.2356	1.5568	1.6547	1.2957	1.7356	0.8111		
		0.5546	0.4836	1.2152	0.8297	1.3191	0.5466	1.6018	1.1052	1.8796	1.8026	1.6978	1.2285		
		
2:40	23.50	1.6196	1.7868	1.5079	1.8099	1.2828	1.2192	1.5912	1.4673	0.8682	1.7556	1.4678	1.5094		
		1.2414	1.4128	1.2593	1.5828	1.5207	0.7674	1.1513	1.515	1.4524	0.9729	1.7235	1.3552		
		0.7202	1.3177	0.7727	1.5697	0.7537	0.8334	1.2021	1.4556	0.882	1.3716	1.8441	1.5277		
		1.8918	1.4871	1.0435	1.3062	1.4821	0.8936	0.7913	1.3079	1.1162	1.0991	0.853	1.3475		
		1.5848	0.8676	0.8531	1.3083	1.2573	0.7071	1.4277	1.5594	1.515	1.2377	1.466	0.4478		
		1.6448	1.3259	1.6348	1.3235	1.2625	1.6138	1.1424	1.3328	1.0983	0.8784	1.3138	1.2947		
		0.8026	1.2516	0.9651	0.7928	1.8864	1.9058	1.2542	1.4582	1.7556	1.2839	1.7939	0.8223		
		0.7794	0.6016	1.2404	0.8287	1.0684	1.217	1.6928	1.0136	1.9241	1.7132	1.7658	1.3314		
		
~End
Instrument type: Instrument serial number:
