##BLOCKS= 2          
Note:~End
Plate:	Plate#1	1.3	PlateFormat	Well Scan	Absorbance	Raw	FALSE	9	Fill	3				1	600	1	12	96	1	8	None	
	Temperature(¡C)	1	2	3	4	5	6	7	8	9	10	11	12		
0:00	22.40	1.6952	1.2158	1.4845	1.622	1.1562	0.6595	1.3183	1.7634	1.3794	1.3224	1.8695	1.8833		
		1.6096	1.804	1.4255	1.2976	1.3498	1.4423	0.8851	1.2754	1.2066	1.0492	1.3108	1.3322		
		1.5391	1.7943	1.1865	1.5479	1.4265	1.3026	1.238	1.6183	1.6112	1.6553	1.7643	1.2498		
		1.5918	1.6407	1.8514	0.9125	1.394	1.5922	1.2957	1.3524	1.8835	1.1473	1.7413	1.2715		
		1.5146	1.7317	1.6995	1.7266	1.1335	1.3852	1.5799	1.2322	1.2778	1.6456	1.5998	1.7007		
		1.4176	1.7377	1.3487	1.6168	1.5683	1.1285	1.2456	1.6737	1.4809	1.4102	1.5722	1.4892		
		1.2104	0.7863	1.0598	1.5584	1.2096	1.2023	1.1913	1.6345	1.3034	1.228	1.1917	1.6592		
		1.9148	1.5762	1.2255	1.3077	1.4265	1.087	0.8188	1.5753	1.6365	1.336	1.2845	1.5641		
		
0:20	22.40	1.5125	0.9554	1.3361	1.4717	1.0286	0.2757	1.099	1.6171	1.1609	1.3822	1.7886	1.8485		
		1.4025	1.6781	0.9951	0.9875	1.3048	1.4764	0.7404	0.9702	1.1885	0.865	0.828	1.766		
		1.5754	1.7193	0.8591	1.4042	1.5894	0.8903	1.0115	1.4403	1.536	1.4794	1.6075	0.9573		
		1.4781	1.5651	1.7057	0.3263	1.5506	1.4118	1.5388	1.2955	1.7163	0.9442	1.5919	1.2072		
		1.4926	1.638	1.5644	1.649	0.8883	1.071	1.4287	1.0314	0.9681	1.5794	1.5823	1.5326		
		1.1718	1.6276	1.436	1.5468	1.4364	0.7275	1.2313	1.5535	1.3496	1.042	1.5254	1.421		
		0.9711	0.5505	0.783	1.4413	0.5121	0.8403	1.3904	1.4195	0.9029	0.9503	1.1004	1.5594		
		1.8997	1.5457	0.6714	1.0762	1.4207	1.1267	0.817	1.3755	1.417	1.232	0.9823	1.3814		
		
0:40	22.40	1.4307	0.8852	1.3481	1.3965	1.2519	0.6176	0.87	1.4845	0.9989	1.1622	1.742	1.8306		
		1.3816	1.6755	1.1	0.8509	1.3008	1.3805	0.799	0.8227	1.2787	1.1231	0.9557	1.7957		
		1.5877	1.6855	0.8995	1.3408	1.6789	0.6937	0.9191	1.4204	1.5146	1.4237	1.5752	0.9393		
		1.4624	1.5704	1.7057	0.6719	1.5773	1.3712	1.587	1.4765	1.664	0.8297	1.5805	1.0274		
		1.4426	1.6486	1.5909	1.7208	0.7918	0.9794	1.5805	1.4442	1.1091	1.6844	1.5736	1.4993		
		1.0257	1.5197	1.4294	1.5634	1.3317	0.9694	0.5249	1.5405	1.3479	0.9554	1.5472	1.3685		
		0.4872	0.7153	0.8946	1.4008	0.7954	0.5987	1.3357	1.4006	0.9068	0.8392	1.5356	1.6774		
		1.8579	1.712	0.4746	1.0123	1.5443	1.1422	0.5187	1.4693	1.3837	1.0304	0.8588	1.3355		
		
1:00	22.40	1.7374	1.1566	1.4585	1.5934	1.2392	0.9149	1.3467	1.7931	1.1445	1.373	1.7604	1.8421		
		1.6301	1.832	1.3439	1.3322	1.3766	1.4343	0.6826	1.2543	1.5402	1.1779	1.2223	1.4115		
		1.4887	1.7102	0.5345	1.6791	1.547	0.82	1.0654	1.5814	1.6428	1.5886	1.826	1.2099		
		1.6229	1.6011	1.7672	0.5547	1.2336	1.584	1.4194	1.3886	1.8796	1.1199	1.7063	1.3922		
		1.6351	1.7165	1.7549	1.827	1.21	1.2042	1.4493	1.1165	1.1734	1.5195	1.647	1.6903		
		1.2674	1.8745	1.3983	1.7174	1.5241	0.8836	0.5887	1.5346	1.5929	1.5104	1.5779	1.4845		
		1.1632	0.7644	1.182	1.4067	0.8144	0.8183	1.3883	1.5818	1.4871	1.1729	1.4043	1.5563		
		1.9543	1.7589	1.1017	1.1793	1.5818	1.2034	0.7605	1.4253	1.6338	1.3083	1.2599	1.4663		
		
1:20	22.50	1.4576	0.9328	1.3543	1.5208	1.0682	0.3795	1.1005	1.6006	0.9601	1.292	1.7916	1.8322		
		1.4264	1.6597	0.8706	0.9102	1.256	1.4673	0.3694	0.3769	1.1467	0.9099	0.8793	1.6513		
		1.5563	1.6671	0.4875	1.4977	1.5072	1.036	1.092	1.4184	1.5368	1.486	1.6112	1.0672		
		1.5631	1.5435	1.652	0.3182	1.4613	1.4103	1.441	1.2845	1.7015	0.7481	1.6215	1.2799		
		1.4752	1.6422	1.6186	1.758	1.0509	0.6328	1.2977	1.0519	0.7372	1.366	1.5618	1.4554		
		1.2621	1.6332	1.3579	1.5755	1.3072	0.3948	0.4627	1.5368	1.4792	1.0382	1.5556	1.4737		
		0.8992	0.6519	0.7512	1.3373	0.4001	0.5583	1.3328	1.4476	1.0444	0.91	1.324	1.5318		
		1.8668	1.6051	0.5438	0.9769	1.3971	1.035	0.7866	1.3543	1.6042	1.1851	0.9628	1.225		
		
1:40	22.50	1.3763	0.8564	1.4058	1.4595	1.0706	0.8256	0.9375	1.4854	0.9222	0.9113	1.7553	1.8216		
		1.3651	1.6676	1.0054	0.84	1.288	1.3962	0.429	0.6318	1.222	1.0328	0.9841	1.7061		
		1.6084	1.6649	0.3588	1.2927	1.6205	0.46	1.0441	1.4148	1.5	1.3842	1.5645	0.962		
		1.5029	1.5927	1.6173	0.6989	1.4793	1.2548	1.5324	1.4231	1.5557	0.8404	1.6032	1.0571		
		1.39	1.6321	1.5421	1.6492	1.0171	0.7886	1.3567	1.375	1.2344	1.6451	1.4566	1.3961		
		1.1119	1.4899	1.4454	1.5664	1.2948	0.4678	0.322	1.5642	1.4704	0.7489	1.5434	1.411		
		0.4967	1.0151	0.6907	1.4047	0.4767	0.8471	1.4402	1.4505	0.8279	0.7466	1.5126	1.6318		
		1.8303	1.6742	0.4706	0.9117	1.4314	0.9745	0.4714	1.447	1.5852	1.1724	0.9198	1.1177		
		
2:00	22.50	1.215	1.1653	1.1966	1.2093	1.1103	1.1151	1.2094	1.3369	1.064	1.0538	1.2664	1.1857		
		1.2417	1.3345	1.1401	1.1097	1.1378	1.0638	0.784	1.072	1.1667	1.0841	1.0132	1.137		
		1.2943	1.224	0.7327	1.2133	1.1964	0.7291	1.1038	1.2302	1.2445	1.2231	1.2082	1.09		
		1.283	1.2253	1.2851	0.8282	1.0926	1.1933	1.2643	1.1696	1.271	1.2372	1.1657	1.1206		
		1.2797	1.2418	1.3333	1.2527	1.2262	1.18	1.3391	1.08	1.1313	1.1699	1.2492	1.1948		
		1.1063	1.2727	1.1871	1.2746	1.1933	0.6845	0.8826	1.215	1.2347	1.0968	1.3503	1.1525		
		1.183	0.8753	1.1424	1.183	0.6078	0.9861	1.2971	1.287	1.2929	1.1443	1.3301	1.2178		
		1.5446	1.3637	1.2066	1.2141	1.4054	1.0157	1.201	1.166	1.3653	1.2733	1.1964	1.248		
		
2:20	22.60	1.3542	1.076	1.5299	1.5423	1.3081	0.7016	1.3381	1.6872	1.0642	1.276	1.8592	1.8871		
		1.6036	1.8294	1.2445	1.184	1.4461	1.4109	0.5447	0.8013	1.3755	1.134	1.0693	1.3651		
		1.5988	1.8072	0.5027	1.6025	1.4456	1.1806	0.6346	1.5326	1.5849	1.6089	1.8643	1.3169		
		1.6727	1.5765	1.8152	0.7062	1.2718	1.5813	1.3996	1.3632	1.7221	1.2223	1.662	1.3017		
		1.6309	1.6992	1.7598	1.8312	1.1858	0.9806	1.4268	1.3686	0.775	1.5976	1.6132	1.6187		
		1.2829	1.7807	1.3739	1.6628	1.3968	0.5037	0.7182	1.5713	1.591	1.462	1.621	1.5717		
		1.4333	0.9626	0.9158	1.345	0.3766	0.8265	1.4132	1.5171	1.3138	0.9342	1.6491	1.5332		
		1.8986	1.7158	0.7447	1.1145	1.5287	1.119	1.0251	1.3299	1.5871	1.2761	1.0415	1.2033		
		
2:40	22.60	1.4752	1.025	1.5088	1.4692	1.1734	0.8317	1.1567	1.5822	1.0918	1.1629	1.841	1.8932		
		1.4854	1.8041	1.255	1.0105	1.3934	1.5578	0.6975	0.6983	1.3221	1.0454	0.9662	1.2567		
		1.6276	1.7675	0.3151	1.4898	1.6516	0.5159	0.6677	1.5323	1.5937	1.4498	1.7838	1.2033		
		1.69	1.6616	1.7845	0.5078	1.3773	1.5124	1.3356	1.3471	1.6774	1.1761	1.6633	1.2103		
		1.5488	1.7008	1.6742	1.7241	1.2048	1.0536	1.2441	1.5228	0.9948	1.7555	1.5687	1.4359		
		1.3653	1.7205	1.2927	1.642	1.412	0.4093	0.6684	1.5828	1.6034	1.1638	1.648	1.5244		
		1.021	1.2317	0.7572	1.519	0.5936	1.054	1.4041	1.5378	1.1588	0.9312	1.7398	1.5897		
		1.8914	1.7322	0.6021	1.0841	1.5457	1.1653	0.9568	1.5135	1.5964	1.1562	0.9337	1.1426		
		
~End
Instrument type: Instrument serial number:
