##BLOCKS= 2          
Note:~End
Plate:	Plate#1	1.3	PlateFormat	Well Scan	Absorbance	Raw	FALSE	9	Fill	3				1	600	1	12	96	1	8	None	
	Temperature(¡C)	1	2	3	4	5	6	7	8	9	10	11	12		
0:00	22.40	1.6996	0.639	1.4533	1.6133	1.7111	1.4002	1.603	1.685	1.6136	1.5687	1.7253	1.6963		
		1.7499	1.7118	1.3908	0.9894	1.6652	0.4669	1.4152	1.6739	1.8129	1.3756	1.4616	1.3248		
		1.2083	1.6794	0.917	1.1148	1.9465	1.9745	0.8765	1.6968	1.563	1.5856	1.7385	1.0594		
		1.2424	0.9575	1.5231	0.9106	1.0413	1.6232	0.7613	1.2145	2.0989	1.5053	1.6984	1.4339		
		0.2375	0.8485	0.8954	1.637	1.7029	0.3424	1.1879	1.6242	0.7865	1.0059	1.9068	1.9667		
		1.7481	1.786	1.3991	0.9921	1.6058	1.4166	1.3568	0.488	1.5782	0.9441	1.1272	1.5863		
		1.5951	1.6546	1.261	1.7007	1.6814	0.4041	0.7779	1.6952	1.526	1.5739	1.6721	1.1691		
		1.477	1.7085	1.8636	1.1787	1.345	1.3105	1.0311	1.1064	1.7612	1.5282	1.65	1.5797		
		
0:20	22.50	1.714	0.644	1.4355	1.6159	1.6749	1.428	1.5693	1.7091	1.6358	1.5648	1.7611	1.7187		
		1.7507	1.7448	1.2816	0.9263	1.7074	0.7021	1.5039	1.7123	1.7617	1.3337	1.6327	1.3675		
		1.2581	1.7067	0.8015	0.9308	1.9146	1.9677	0.738	1.6782	1.5398	1.5964	1.6833	1.0416		
		1.3663	1.2031	1.6191	1.1134	1.2311	1.683	0.807	0.9741	2.1005	1.5957	1.7177	1.5911		
		0.3877	0.8025	0.9438	1.6593	1.7072	0.8622	1.201	1.684	0.7282	1.0614	1.8942	1.9903		
		1.7206	1.8124	1.4334	0.8861	1.6352	1.4466	1.2472	1.0978	1.5837	0.9106	1.2334	1.7496		
		1.6164	1.6665	0.9067	1.7121	1.7289	0.4775	0.9068	1.7014	1.5474	1.5848	1.6858	1.1891		
		1.4729	1.7091	1.8764	0.9838	1.1875	1.2309	1.435	0.9011	1.8874	1.523	1.6657	1.6386		
		
0:40	22.50	1.9062	0.8352	1.4323	1.5575	1.6201	1.2962	1.5395	1.7572	1.6564	1.6131	1.7197	1.7687		
		1.797	1.9236	1.3776	0.9961	1.6927	0.7111	1.6277	1.7538	1.854	1.3898	1.5096	1.5119		
		1.2895	1.7751	0.9698	1.1224	1.9372	2.0143	0.8363	1.7913	1.5794	1.6499	1.828	1.1978		
		1.2413	0.9513	1.5238	1.1335	1.302	1.8702	0.9274	0.9555	2.0241	1.5195	1.8113	1.6526		
		0.8214	0.8484	1.0657	1.6701	1.6805	0.877	1.1838	1.7829	0.7695	1.1954	1.4523	2.0468		
		1.6435	1.8835	1.3753	1.015	1.6556	1.5398	1.242	0.78	1.3872	1.0264	1.2322	1.6453		
		1.6446	1.7605	0.962	1.7356	1.713	0.332	1.3131	1.842	1.6242	1.5882	1.8238	1.2204		
		1.4948	1.6876	1.9727	0.7526	1.0059	1.4014	1.6218	1.0029	2.0646	1.5588	1.7479	1.7211		
		
1:00	22.50	1.72	0.7497	1.4488	1.5998	1.6891	1.4201	1.6087	1.6762	1.525	1.5957	1.6823	1.7069		
		1.7569	1.6681	1.21	0.9921	1.6701	0.2754	1.3951	1.6947	1.8164	1.1193	1.5078	1.2652		
		1.2106	1.6626	0.7915	0.8864	1.9464	1.983	0.7236	1.6921	1.5726	1.6537	1.6613	1.1747		
		1.2576	0.8288	1.5681	0.8929	1.0033	1.3843	0.3002	1.0787	2.0975	1.4854	1.7019	1.5312		
		0.2124	0.7521	0.9066	1.7003	1.6699	0.3698	1.2084	1.6905	0.8152	0.946	1.8999	1.9719		
		1.7477	1.8054	1.3205	1.0441	1.6442	1.3384	1.3334	0.7406	1.5881	0.9356	1.0805	1.542		
		1.6235	1.6744	1.4643	1.733	1.7333	0.4918	0.8091	1.6801	1.5589	1.5733	1.617	1.2082		
		1.4827	1.7123	1.9134	1.0806	0.9604	1.3098	0.8788	1.0374	1.9042	1.5311	1.6524	1.6115		
		
1:20	22.60	1.7399	0.6582	1.4464	1.5244	1.6906	1.4495	1.581	1.6808	1.5642	1.5692	1.7043	1.7167		
		1.7512	1.6987	1.2151	0.948	1.6492	0.4825	1.4753	1.7137	1.8151	1.0374	1.5781	1.34		
		1.2941	1.6838	0.8291	0.8185	1.8506	1.9657	0.7156	1.6734	1.5538	1.6489	1.6291	1.092		
		1.2471	1.1569	1.6008	0.9196	1.0514	1.59	0.2632	1.3066	2.0806	1.5284	1.7037	1.6		
		0.3522	0.7811	0.9664	1.6615	1.6694	0.9104	1.1747	1.7014	0.7371	1.0619	1.8847	1.9808		
		1.7064	1.7923	1.3564	0.958	1.6831	1.2835	1.2691	1.328	1.5901	0.9044	1.1242	1.7241		
		1.6563	1.6556	1.3613	1.7222	1.7117	0.5433	0.9476	1.6603	1.5134	1.5329	1.6488	1.2141		
		1.5035	1.7197	1.8969	0.8764	0.759	1.3307	1.1933	0.8144	2.0181	1.5131	1.6756	1.6825		
		
1:40	22.60	1.8904	0.7407	1.4792	1.4347	1.6697	1.3666	1.5418	1.762	1.6009	1.5559	1.6435	1.7762		
		1.7767	1.9274	1.3404	1.0102	1.6834	0.7813	1.6454	1.7263	1.8755	1.2723	1.512	1.4474		
		1.2819	1.7645	1.0027	0.9894	1.9657	2.0106	0.8873	1.7856	1.5995	1.6774	1.8635	1.1613		
		1.355	0.6631	1.5916	0.8819	1.0916	1.6625	0.7429	1.2126	2.1062	1.6188	1.8101	1.7105		
		0.7414	0.8599	1.2184	1.6304	1.6584	0.67	1.2313	1.791	0.8032	1.1732	1.8568	2.0424		
		1.6674	1.8729	1.6102	1.003	1.699	1.3553	1.4496	0.5099	1.4766	1.0602	1.3492	1.753		
		1.6354	1.7061	1.1548	1.7496	1.6967	0.3426	1.0056	1.7933	1.6161	1.5821	1.8617	1.3595		
		1.4535	1.7143	1.9941	1.0474	0.93	1.5429	1.2538	0.8657	2.1924	1.5654	1.7286	1.7601		
		
2:00	22.60	1.8732	0.9767	1.5313	1.5569	1.5677	1.3715	1.5154	1.7359	1.5547	1.5746	1.7353	1.7683		
		1.7784	1.7892	1.2881	1.0602	1.6704	0.713	1.4872	1.6496	1.9009	1.2541	1.5188	1.3508		
		1.2732	1.883	1.043	1.0018	1.9033	2.0178	0.8519	1.8076	1.6276	1.6655	1.8477	1.2466		
		1.2624	0.6942	1.5942	0.9436	1.0689	1.25	0.312	1.3887	2.006	1.5634	1.8005	1.5896		
		0.8047	0.8864	1.0118	1.6182	1.5922	0.6129	1.3058	1.7912	1.0703	1.1935	1.9452	2.0144		
		1.785	1.8895	1.3972	1.1853	1.6767	1.3294	1.3833	1.0747	1.6609	1.0366	1.1651	1.5506		
		1.6871	1.6937	1.5105	1.7186	1.726	1.2757	1.0714	1.7555	1.6302	1.5606	1.7901	1.2359		
		1.592	1.7371	1.9657	0.9281	0.8543	1.4965	1.2932	1.1683	1.9323	1.6522	1.7441	1.6745		
		
2:20	22.70	1.9203	0.9192	1.5552	1.4853	1.6192	1.3731	1.5415	1.7085	1.6099	1.5602	1.7331	1.7662		
		1.8011	1.8213	1.281	0.9913	1.7185	0.6378	1.6547	1.6514	1.8484	1.1612	1.3556	1.4006		
		1.2854	1.8468	1.1029	1.0451	1.9417	2.0417	0.9021	1.7916	1.5784	1.6755	1.7923	1.1208		
		1.2292	0.6441	1.6311	0.9055	1.14	1.4839	0.3062	1.1492	2.0356	1.5601	1.7681	1.6208		
		1.0014	0.8499	0.964	1.6569	1.6714	0.6225	1.2101	1.7942	0.9378	1.0731	1.9587	2.0139		
		1.7403	1.8161	1.4031	1.0992	1.787	1.3077	1.247	1.2731	1.6451	0.9862	1.0831	1.7719		
		1.6452	1.7123	1.5014	1.7463	1.7221	0.8855	1.1826	1.7689	1.5759	1.5042	1.7974	1.2114		
		1.6311	1.7827	1.937	0.6705	1.0452	1.5513	1.2901	0.9231	2.0753	1.6118	1.7531	1.7721		
		
2:40	22.70	1.8776	0.9825	1.4678	1.484	1.5643	1.4905	1.587	1.7227	1.5519	1.51	1.5985	1.6459		
		1.7141	1.7546	1.367	1.2144	1.7049	0.652	1.6957	1.5425	1.7252	1.0998	1.1451	1.5251		
		1.2549	1.7551	1.1774	1.0952	2.0069	1.9564	1.2177	1.7513	1.6677	1.6621	1.8438	1.2654		
		1.2113	0.7973	1.5718	1.0341	1.1253	1.6587	0.7463	1.1349	2.003	1.5656	1.7883	1.568		
		1.2173	1.0403	1.3344	1.6532	1.6214	1.4816	1.2356	1.785	0.9804	1.3239	1.6448	1.8911		
		1.6999	1.7543	1.4208	1.1767	1.7614	1.3396	1.3007	0.8381	1.5619	1.2028	1.1408	1.5964		
		1.5829	1.657	1.5467	1.7117	1.6588	0.8668	1.4393	1.7614	1.714	1.5259	1.8212	1.391		
		1.6019	1.7422	1.9514	1.0577	0.9042	1.4163	1.2764	1.1797	2.1186	1.61	1.7615	1.6478		
		
~End
Instrument type: Instrument serial number:
