##BLOCKS= 2          
Note:~End
Plate:	Plate#1	1.3	PlateFormat	Well Scan	Absorbance	Raw	FALSE	9	Fill	3				1	600	1	12	96	1	8	None	
	Temperature(¡C)	1	2	3	4	5	6	7	8	9	10	11	12		
0:00	23.50	0.8715	1.785	1.5371	1.9188	0.9899	0.7862	1.3769	1.1374	0.3859	1.7295	1.6886	1.2318		
		0.9801	1.8442	1.5998	1.5872	1.5573	1.0157	0.4572	1.7841	1.4213	1.6388	1.6672	1.5234		
		1.4814	0.6566	0.8191	1.479	0.7991	1.1492	1.1786	1.4169	1.12	0.975	1.8059	1.6906		
		1.9193	1.6019	1.0766	0.9512	1.3134	0.7071	0.315	1.5243	1.5124	0.7332	0.6693	1.6597		
		1.7993	0.8576	0.8479	1.5653	1.4719	0.9706	1.7052	1.7079	1.7363	1.043	1.7132	0.7833		
		1.7145	1.3844	0.8278	0.9909	1.3002	1.4338	1.3826	1.5801	1.6317	0.3037	1.3601	1.1124		
		1.0046	1.2882	0.8965	0.942	1.8148	1.9667	1.2041	1.5251	1.5623	1.3515	1.8571	1.0467		
		1.365	1.2577	1.5608	1.16	0.7552	1.2001	1.7174	1.2233	1.8672	1.6149	1.7546	1.1711		
		
0:20	23.50	0.9577	1.7143	1.593	1.8946	0.8775	0.8814	1.3604	1.2258	0.2607	1.6515	1.5682	1.6152		
		0.8876	1.8095	1.6028	1.6021	1.5909	1.1874	0.7025	1.7121	1.291	1.4528	1.6906	1.5208		
		0.7622	0.8546	0.7761	1.541	1.0566	1.0894	1.5441	1.394	1.2257	0.8637	1.719	1.6991		
		1.9224	1.6537	0.7914	0.7723	1.433	0.5249	0.4592	1.6146	1.3048	0.8069	0.8418	1.642		
		1.7327	1.0038	0.7487	1.6344	1.6406	0.4169	1.766	1.7048	1.732	0.9646	1.6416	0.2604		
		1.6468	1.4101	0.7693	0.8964	1.4696	1.6655	1.4102	1.6734	1.3868	0.6735	1.1774	1.314		
		0.9875	1.1194	0.7504	0.5802	1.8865	1.8876	0.9425	1.4763	1.5528	1.513	1.782	0.8844		
		1.2836	0.8929	1.5966	1.0576	1.3117	1.0807	1.7087	0.8663	1.8548	1.7326	1.764	1.0348		
		
0:40	23.50	1.1377	1.7584	1.6588	2.0304	0.987	1.1627	1.3878	1.3188	0.6615	1.6369	1.5816	1.7185		
		0.961	1.8335	1.5521	1.6715	1.7539	0.9947	1.2396	1.6066	1.4294	1.5805	1.7763	1.5693		
		1.0102	0.9676	0.7114	1.7523	1.378	1.1283	1.3311	1.4004	1.0751	1.1542	1.8617	1.7245		
		2.0216	1.7916	0.6424	1.042	1.261	0.5407	0.896	1.5876	1.2356	0.7523	0.8107	1.617		
		1.7833	1.071	0.5748	1.456	1.4687	0.3011	1.7117	1.6993	1.6586	1.0779	1.5754	0.2661		
		1.6996	1.3733	0.6743	1.0143	1.4342	1.3755	1.2572	1.7766	1.1025	1.3699	1.5283	1.4394		
		1.0507	1.3281	1.0386	0.8142	1.9492	1.9286	0.6448	1.5873	1.6126	1.6492	1.8565	0.7619		
		1.3244	1.241	1.158	0.8932	1.3074	1.233	1.7817	0.77	1.8177	1.7776	1.797	1.3967		
		
1:00	23.60	1.0988	1.7623	1.5608	1.8851	0.9795	0.8448	1.3741	1.4074	0.4123	1.6167	1.6654	1.4863		
		1.0018	1.6594	1.5053	1.5622	1.5811	1.2471	0.7601	1.6802	1.3399	1.3785	1.6152	1.514		
		1.4818	0.5643	0.8923	1.4221	0.3234	1.0376	1.1623	1.4717	1.0726	1.0151	1.7231	1.7055		
		1.9118	1.2475	0.91	0.8816	1.5266	0.828	0.6048	1.2835	1.6027	0.7603	0.6869	1.5482		
		1.7072	0.8816	0.7666	1.6407	1.4396	1.1211	1.6451	1.837	1.7196	1.0676	1.7048	0.4596		
		1.6772	1.5264	0.7831	0.8211	1.3669	1.5128	1.0419	1.548	1.7065	0.3575	1.4857	1.4039		
		0.7879	1.3062	0.7621	0.8777	1.7528	1.9533	1.2101	1.4051	1.5487	1.4465	1.7983	1.0017		
		1.4635	0.7867	1.5301	1.4824	0.6774	1.3414	1.7168	1.0833	1.8791	1.6205	1.7109	1.0538		
		
1:20	23.60	1.1415	1.7471	1.485	1.8608	0.9314	0.7947	1.3169	1.2752	0.2893	1.5798	1.5805	1.5799		
		0.9097	1.5988	1.421	1.531	1.5993	1.0539	0.509	1.5595	1.3573	1.1361	1.6135	1.5476		
		1.1133	0.7512	0.7898	1.4959	0.2892	1.1192	1.251	1.4944	1.1939	0.977	1.6952	1.6924		
		1.8956	1.6523	0.8351	0.7648	1.5114	0.6221	0.6016	1.3267	1.3008	0.7326	0.8361	1.5973		
		1.6143	1.0435	0.6477	1.445	1.4824	0.2531	1.664	1.7412	1.71	0.9547	1.6566	0.2401		
		1.6481	1.4647	0.9039	0.9478	1.4075	1.4624	1.0191	1.6124	1.5392	0.3727	1.4915	1.2128		
		0.6629	1.0643	0.723	0.6543	1.8562	1.9205	0.6979	1.3521	1.5722	1.4426	1.7086	0.9157		
		1.3195	0.2697	1.3254	0.9997	0.8253	0.7311	1.7312	0.9545	1.8479	1.7931	1.7291	1.2451		
		
1:40	23.70	1.2353	1.8361	1.526	1.9047	0.766	1.1022	1.3453	1.0017	0.801	1.6839	1.5612	1.6512		
		0.9057	1.7157	1.2884	1.5735	1.7174	1.0086	0.6484	1.5523	1.4618	1.1024	1.769	1.513		
		0.8091	1.2062	0.7727	1.7286	0.4364	1.177	1.155	1.4894	1.0554	0.8482	1.864	1.7357		
		1.9838	1.7335	0.7675	0.9407	1.3532	0.6532	0.4196	1.4579	1.0659	0.8335	0.8017	1.6467		
		1.8551	0.8513	0.8327	1.6569	1.4978	0.4234	1.5429	1.6487	1.7627	1.0134	1.5695	0.3149		
		1.6731	1.5258	0.6619	1.073	1.5519	1.4494	1.0938	1.6789	1.1673	0.5949	1.2684	1.427		
		0.973	1.0456	0.7631	0.7537	2.0017	1.9376	0.5958	1.553	1.6297	1.4671	1.8307	0.7249		
		1.3994	0.7501	1.0012	0.8839	0.9707	0.9273	1.8692	0.8616	1.9324	1.8012	1.8253	1.4722		
		
2:00	23.70	1.2387	1.7568	1.5901	1.9558	1.3633	1.2375	1.4724	1.3748	1.2757	1.6903	1.7046	1.4882		
		1.1906	1.7542	1.2397	1.6824	1.7192	1.2458	1.4938	1.5493	1.5071	1.3087	1.7523	1.4918		
		1.1993	0.6492	0.8804	1.5125	1.0074	1.1341	1.2939	1.453	1.0613	1.3145	1.8587	1.7569		
		1.9755	1.7598	1.1581	0.9282	1.5487	0.9744	0.6411	1.2999	1.2719	0.817	0.7288	1.4814		
		1.8079	1.1135	0.6569	1.6542	1.4179	1.6297	1.5028	1.9075	1.6998	1.1836	1.4283	0.6247		
		1.6958	1.5968	0.8264	0.9663	1.4659	1.4181	1.0892	1.4914	1.6663	0.956	1.5103	1.4221		
		0.6956	1.4343	0.7833	0.9867	1.8336	1.9788	1.7554	1.5555	1.5465	1.492	1.8626	1.1179		
		1.2865	0.9771	1.4569	1.1462	1.0081	0.9761	1.6927	1.3179	2.0195	1.6408	1.642	1.2159		
		
2:20	23.70	1.226	1.8344	1.485	1.9705	1.1113	1.1217	1.4573	1.5181	1.2696	1.7183	1.5726	1.4622		
		1.2701	1.7472	1.265	1.6354	1.7342	1.1994	1.3172	1.5232	1.4453	1.3057	1.7288	1.5147		
		0.9746	0.8025	0.7799	1.4567	0.3464	1.002	1.1181	1.4518	0.8924	1.2937	1.8623	1.723		
		1.9462	1.8096	0.9206	0.8969	1.5382	0.8499	0.9665	1.4062	0.9561	0.8677	0.7947	1.654		
		1.7179	1.076	0.5702	1.3938	1.4771	0.7312	1.3097	1.7895	1.8604	1.0816	1.531	0.4397		
		1.682	1.5931	0.9235	1.0663	1.3145	1.5574	1.0257	1.53	1.559	1.4041	1.4062	1.2425		
		0.6526	1.3899	0.5782	0.9343	1.9404	1.9717	1.2657	1.5401	1.6435	1.438	1.8147	0.9297		
		1.2584	0.4295	1.2877	0.8718	1.1566	0.8996	1.6612	1.1033	1.9831	1.7655	1.6851	1.2792		
		
2:40	23.80	1.5072	1.8742	1.499	1.686	1.2418	1.2327	1.5203	1.4766	0.9039	1.8005	1.5344	1.6397		
		1.1548	1.6476	1.2336	1.5881	1.753	1.1486	1.0143	1.5655	1.464	1.1884	1.761	1.4185		
		0.8329	1.2535	0.7696	1.574	0.8411	1.1257	1.0316	1.4896	0.8995	1.1087	1.9098	1.7211		
		1.9472	1.7805	1.0271	0.9797	1.3014	0.9721	0.877	1.4037	0.9718	1.034	0.74	1.5973		
		1.8238	0.8897	0.6658	1.5697	1.4692	0.6809	1.3421	1.7041	1.784	1.1866	1.5411	0.4559		
		1.7066	1.5973	0.7861	1.3121	1.3901	1.6044	1.2712	1.5325	1.3862	0.9099	1.2334	1.2718		
		0.8843	1.3692	0.795	1.0035	1.8955	1.951	1.3441	1.4774	1.6595	1.3753	1.8351	0.9015		
		1.282	0.9186	1.2469	0.8727	1.1419	1.0723	1.7691	0.9567	2.0028	1.6779	1.6795	1.4388		
		
~End
Instrument type: Instrument serial number:
