##BLOCKS= 2          
Note:~End
Plate:	Plate#1	1.3	PlateFormat	Well Scan	Absorbance	Raw	FALSE	9	Fill	3				1	600	1	12	96	1	8	None	
	Temperature(¡C)	1	2	3	4	5	6	7	8	9	10	11	12		
0:00	23.70	0.5985	0.7532	0.8057	1.3236	0.9693	0.4217	1.3755	1.0982	0.5033	1.2575	1.3514	0.2886		
		0.8262	0.7341	0.997	1.0254	1.376	0.4361	0.7497	1.2361	1.1175	0.4668	0.8587	1.3092		
		1.0812	0.6887	0.8678	0.6163	1.3365	1.5027	0.387	1.3165	1.2987	1.1398	1.6829	0.8822		
		0.4027	0.3973	1.4656	0.7808	0.6165	0.6045	0.6583	1.1651	1.0902	0.4757	1.2463	0.8675		
		0.2278	0.951	0.8129	1.3046	0.7686	0.3168	1.2443	0.3959	0.9931	0.5291	1.0106	1.3699		
		1.0637	0.9675	0.8291	0.9757	1.3848	0.3463	0.8562	0.3432	1.5229	0.774	0.3847	0.6572		
		1.3033	0.7858	0.6199	1.3425	1.4389	0.4444	0.3245	1.3499	1.431	1.3167	1.3746	0.8459		
		0.9168	1.3358	0.7128	0.5145	1.2878	1.3126	0.9239	1.1881	0.9604	0.7438	1.2336	0.8272		
		
0:20	23.80	0.6136	0.7618	0.7881	1.3044	0.8763	0.5086	1.2863	1.0755	0.6385	1.2056	1.4044	0.3132		
		0.8469	0.866	0.5368	0.8955	1.4295	0.9803	0.8482	1.3382	0.785	1.1679	1.265	1.3454		
		1.0378	0.7351	0.9118	0.4693	0.9205	1.0742	0.2423	1.2937	1.2578	1.1465	1.5299	1.091		
		0.3404	0.6436	1.4734	0.8674	0.505	0.4725	0.6354	1.15	1.1634	0.9061	1.2537	0.9712		
		0.3128	0.7803	0.8097	1.2475	0.4784	0.3922	1.2762	0.3576	0.9196	0.4687	1.1393	1.2063		
		0.9868	0.7274	0.593	0.906	1.4116	0.3737	0.4102	0.4513	1.5196	0.7756	0.7261	0.8307		
		1.3323	0.7975	0.3785	1.351	1.5056	0.4893	0.4682	1.3322	1.4047	1.301	1.44	0.643		
		0.8922	1.3324	0.6989	0.7258	1.1354	1.1694	1.4246	1.0117	0.866	0.6303	1.2596	0.7336		
		
0:40	23.80	1.0523	0.9645	0.7773	1.3442	1.2303	0.997	1.3507	1.2418	0.4743	1.3507	1.405	0.8174		
		1.1311	0.7963	1.1698	1.0519	1.439	1.1206	1.1605	1.3396	0.7208	1.1996	1.221	1.5246		
		1.0626	1.0959	1.2131	1.0144	0.9245	1.2979	0.6005	1.4096	1.324	1.304	1.4997	0.9821		
		0.9891	1.2318	1.4647	1.0737	0.9791	0.7959	0.8695	1.1603	1.0566	1.183	1.4131	1.1698		
		0.618	0.9532	0.9787	1.4493	0.7249	1.1152	1.2898	0.6587	0.9129	0.8706	0.9126	1.4498		
		1.1411	1.1961	0.6316	1.1554	1.4452	1.1082	0.7203	1.0239	1.2843	1.0262	1.1268	0.9004		
		1.4681	0.8765	1.0446	1.454	1.3966	0.3561	1.2102	1.5226	1.556	1.4309	1.5978	0.8413		
		1.1548	1.3132	0.9621	0.8363	0.955	1.3319	1.5389	1.129	1.3137	0.904	1.4228	1.0031		
		
1:00	23.80	0.6658	0.7821	0.8704	1.3305	1.1448	0.2655	1.3178	1.1397	0.469	1.3841	1.2925	0.2792		
		0.9187	0.8362	0.4883	0.9679	1.3789	0.426	0.9018	1.2404	0.7397	0.7274	1.2017	1.2902		
		1.1413	0.4746	0.867	0.4654	1.0841	1.2425	0.5789	1.2329	1.3241	1.4196	1.5173	0.8657		
		0.2139	0.4395	1.4954	0.7632	0.5063	0.6536	0.278	1.0033	1.1492	0.3016	1.2377	0.7811		
		0.2065	0.6883	0.8133	1.3583	0.4652	0.4013	1.2035	0.5354	1.0173	0.5668	0.9568	1.3812		
		1.1456	1.0385	0.5368	1.0402	1.4331	0.4008	0.4847	0.3857	1.5183	0.7966	0.2832	0.5312		
		1.3205	0.8445	0.4067	1.406	1.5002	0.4677	0.2757	1.3486	1.4302	1.2855	1.4091	0.8935		
		0.9051	1.3105	1.1246	0.2649	0.9069	1.3368	0.8479	1.199	1.0417	0.6609	1.2031	0.7919		
		
1:20	23.90	0.6588	0.7306	0.8705	1.1948	0.6846	0.7122	1.2812	1.1248	0.2646	1.2721	1.2381	0.3302		
		0.8801	0.6095	0.3419	0.9231	1.3055	0.9513	1.0096	1.2926	1.0235	1.0479	1.2973	1.3255		
		0.9846	0.5466	0.9869	0.5221	0.6526	1.0633	0.3501	1.2934	1.306	1.1876	1.4538	0.8571		
		0.3088	0.7211	1.534	0.8184	0.5266	0.4549	0.2655	1.2853	1.1739	0.4375	1.1659	0.8418		
		0.3124	0.6967	0.7872	1.2282	0.3514	0.4839	1.207	0.7225	0.9145	0.6159	1.0655	1.2773		
		1.0315	0.946	0.5045	1.0692	1.4425	0.3375	0.2872	0.4102	1.4928	0.7909	0.7214	0.6726		
		1.3457	0.7199	0.2698	1.3829	1.4706	0.4214	0.4788	1.3369	1.3512	1.2436	1.4059	0.744		
		0.9976	1.2995	0.8426	0.5063	0.823	1.3244	1.1517	1.03	0.9956	0.5703	1.2823	0.9088		
		
1:40	23.90	0.9607	0.8827	0.791	1.1999	0.8417	1.2199	1.3693	1.3133	0.3871	1.2812	1.2751	1.1364		
		1.0946	0.8252	0.8443	1.0877	1.3591	1.0493	1.3002	1.3121	0.6056	0.7637	1.0148	1.4548		
		1.2626	0.8757	1.0773	1.0469	1.0328	1.1519	0.7521	1.3876	1.4452	1.0879	1.5943	0.972		
		0.9917	0.6915	1.5093	1.1205	1.1887	1.1225	0.6276	1.3593	1.3177	0.8634	1.3352	1.1204		
		0.9404	0.883	1.0025	1.3239	0.4653	1.0083	1.3556	0.8156	0.9263	1.0185	1.2213	1.5041		
		1.0636	1.4143	1.2581	1.1738	1.5309	0.8215	0.923	0.5073	1.4875	1.1307	0.5662	1.1723		
		1.3746	0.886	0.5456	1.445	1.4259	0.6729	0.8644	1.5116	1.4951	1.3851	1.5889	1.1088		
		1.1395	1.3647	1.0422	1.102	0.9945	1.6258	1.073	1.1081	1.2774	0.8648	1.4035	1.2498		
		
2:00	23.90	1.0855	1.0431	1.1063	1.326	1.0549	0.6981	1.3517	1.3145	1.0618	1.5355	1.5147	0.735		
		1.1478	1.2925	0.7495	1.1784	1.4947	0.7037	1.2783	1.2508	0.9178	1.0015	1.2151	1.3506		
		1.1606	0.8527	1.2558	0.7051	0.991	1.3266	1.4426	1.38	1.4584	1.446	1.4076	1.0554		
		0.6642	0.6277	1.5389	1.0197	1.1203	0.8778	0.2982	1.365	1.2339	0.3984	1.4227	0.9858		
		0.3847	0.9001	0.9453	1.3191	1.4052	0.9997	1.3874	1.2627	1.2503	1.3225	1.6203	1.5577		
		1.3466	1.274	0.7961	1.1918	1.468	1.1589	0.8863	1.2781	1.658	1.0561	0.3719	1.1248		
		1.472	1.1811	0.9451	1.4449	1.4471	1.1152	0.6751	1.4538	1.5392	1.3185	1.5434	1.0635		
		1.1588	1.376	1.456	0.7054	0.926	1.5145	1.3026	1.405	1.5871	1.1828	1.3885	0.9958		
		
2:20	24.00	1.0604	1.1604	1.0985	1.3282	0.7387	0.8226	1.3583	1.3164	0.5635	1.4221	1.3946	0.5205		
		1.1212	0.9	0.6092	1.1051	1.5264	0.6637	1.3056	1.1982	0.673	0.86	0.8051	1.4841		
		1.1352	1.1685	1.142	0.8531	0.8931	1.3791	1.1078	1.3646	1.4848	1.1564	1.3333	0.9471		
		0.6217	0.3834	1.607	1.1989	1.0428	0.5333	0.304	1.2193	1.3713	0.4426	1.2531	0.9159		
		0.8784	0.8965	0.9663	1.3343	0.8462	0.781	1.3046	1.3101	1.1519	1.2701	1.4823	1.4789		
		1.2367	1.0347	0.8597	1.1752	1.5463	0.8643	0.5278	1.3398	1.5777	0.9386	0.6259	1.1814		
		1.4266	1.1441	0.5815	1.4477	1.3663	1.2685	0.9708	1.4403	1.4387	1.3016	1.5509	0.964		
		1.2903	1.5164	1.4327	0.4305	1.1858	1.5883	1.2328	1.1473	1.3634	1.1178	1.4465	1.1012		
		
2:40	24.00	1.2543	1.2162	0.9176	1.4442	1.2516	0.8079	1.5167	1.4742	0.7903	1.4122	1.4254	1.0595		
		1.3487	1.3154	1.3194	1.2408	1.6306	1.2217	1.4135	1.2127	0.7835	1.4814	1.3571	1.4847		
		1.3389	1.0435	1.3659	1.5988	1.334	1.5428	1.3689	1.3927	1.5442	1.1691	1.6349	0.9852		
		1.3621	0.6791	1.7016	1.4146	1.2802	1.1829	0.6546	1.3084	1.6277	1.2859	1.3947	1.1322		
		1.1617	1.2178	1.3826	1.5501	0.796	1.3534	1.4148	1.3399	1.1005	1.5152	1.1999	1.6443		
		1.2833	1.2514	1.6329	1.306	1.5043	0.4224	1.3717	0.5235	1.5259	1.4237	1.2506	1.1419		
		1.5008	1.14	1.5511	1.5619	1.3263	1.2815	1.4719	1.5337	1.5892	1.4325	1.6414	1.284		
		1.4144	1.5999	1.296	0.9731	1.0417	1.4709	1.273	1.3486	1.6493	1.4205	1.501	0.925		
		
~End
Instrument type: Instrument serial number:
