##BLOCKS= 2          
Note:~End
Plate:	Plate#1	1.3	PlateFormat	Well Scan	Absorbance	Raw	FALSE	9	Fill	3				1	600	1	12	96	1	8	None	
	Temperature(¡C)	1	2	3	4	5	6	7	8	9	10	11	12		
0:00	22.10	1.9484	1.1203	1.5703	1.6786	1.4813	0.6341	1.0269	1.7733	1.3158	1.3261	1.9256	2.0009		
		1.7178	1.8527	1.3117	1.3336	1.3341	1.5146	1.3518	0.9791	1.2315	1.1093	1.3476	1.6133		
		1.6329	1.7442	1.1672	1.6602	1.5031	1.3101	1.4098	1.6445	1.6125	1.6601	1.7954	1.1954		
		1.6303	1.7087	1.7714	1.0555	1.3778	1.5748	1.2901	1.3471	1.9798	1.321	1.7251	1.3785		
		1.7078	1.7843	1.6502	1.8801	1.0712	1.4423	1.5254	1.2034	1.1948	1.9312	1.6339	1.6597		
		1.4965	1.8134	1.4757	1.616	1.5652	1.1561	1.147	1.6751	1.5998	1.4998	1.6023	1.5314		
		1.7044	1.215	1.1214	1.4072	1.2972	1.446	1.4582	1.6508	1.2213	1.1071	1.7191	1.7076		
		2.004	1.7936	1.3492	1.2712	1.4229	1.3647	0.8893	1.6255	1.6623	1.613	1.193	1.7991		
		
0:20	22.10	1.8396	0.8551	1.5499	1.6343	1.5389	0.2706	1.1181	1.6105	1.0924	1.376	1.8827	1.9762		
		1.6094	1.7721	1.0463	1.1354	1.4089	1.6177	1.3637	0.9232	1.1723	1.0066	1.0985	1.7982		
		1.7101	1.7127	0.9636	1.6105	1.7345	0.8941	1.1987	1.5864	1.5131	1.5575	1.6863	0.9808		
		1.5159	1.6872	1.6379	0.5023	1.5137	1.3962	1.5351	1.2252	1.8288	1.2723	1.6274	1.3862		
		1.6646	1.7332	1.5225	2.0878	0.7943	1.0601	1.4357	1.0388	1.0871	1.6875	1.6566	1.5497		
		1.5196	1.7416	1.5942	1.5619	1.5127	1.2867	0.9668	1.6622	1.5835	1.4981	1.6596	1.5404		
		1.6696	1.116	1.0128	1.3855	0.8736	1.3727	1.5938	1.5352	1.0105	1.0711	1.6929	1.6783		
		1.9964	1.8599	0.8905	1.0096	1.4198	1.37	1.0784	1.5469	1.5411	1.6011	0.8971	1.7861		
		
0:40	22.10	1.7799	0.8062	1.5781	1.6411	1.5861	0.6091	1.2625	1.613	0.8885	1.1418	1.8451	1.9688		
		1.5869	1.745	1.1722	1.0372	1.5164	1.5301	1.3338	0.8306	1.2827	1.2046	1.1747	1.8237		
		1.7474	1.6924	0.9479	1.6141	1.789	0.7128	1.0421	1.5853	1.4527	1.5448	1.6623	1.006		
		1.4818	1.6851	1.5914	0.5359	1.561	1.362	1.5639	1.4083	1.7322	1.2157	1.6059	1.304		
		1.6333	1.7212	1.6016	2.1168	0.6888	0.9883	1.5784	1.3983	1.1318	1.6141	1.6738	1.5243		
		1.3513	1.6326	1.5393	1.5817	1.4456	0.7783	0.8832	1.6671	1.6054	1.0822	1.6881	1.5122		
		1.4935	1.2067	1.1178	1.3966	1.1842	1.4441	1.5411	1.4894	0.9969	1.0162	1.6497	1.7203		
		1.9656	1.9066	0.6949	0.8938	1.5167	1.2353	0.7511	1.5611	1.54	1.4846	0.7624	1.7597		
		
1:00	22.10	1.9562	1.1355	1.5681	1.7387	1.534	0.8866	1.0663	1.7438	1.1022	1.3885	1.8419	1.9077		
		1.6882	1.856	1.2754	1.3219	1.4979	1.5641	1.3359	0.8533	1.5471	1.2048	1.2353	1.5948		
		1.5576	1.7209	0.7176	1.7169	1.6239	0.803	1.1936	1.6015	1.6192	1.6547	1.8485	1.1682		
		1.6313	1.7009	1.8195	0.942	1.2005	1.5585	1.4233	1.3744	2.0167	1.2961	1.7186	1.494		
		1.7644	1.7569	1.6669	2.0072	1.1853	1.2818	1.4101	1.1876	1.1983	1.8698	1.6958	1.6298		
		1.4353	1.9429	1.5352	1.6069	1.5749	1.2263	0.7408	1.5943	1.6801	1.6105	1.7012	1.533		
		1.7667	1.2529	1.208	1.1897	0.7248	1.4656	1.5146	1.6263	1.4429	1.1502	1.8417	1.6441		
		2.0528	1.8518	1.0044	1.1878	1.3832	1.3957	0.7575	1.484	1.7027	1.6385	1.1754	1.8222		
		
1:20	22.20	1.8285	0.8918	1.5602	1.7035	1.5619	0.3633	1.1784	1.6308	0.8729	1.2922	1.8764	1.9588		
		1.6212	1.72	1.0349	1.1406	1.4683	1.5481	1.4219	0.4747	1.2122	1.0687	1.113	1.7667		
		1.7072	1.6947	0.8717	1.6554	1.6762	1.0674	0.9151	1.5689	1.5195	1.5536	1.6678	1.1171		
		1.5234	1.6741	1.6153	0.5611	1.427	1.3855	1.4195	1.1858	1.8289	1.117	1.6535	1.4589		
		1.6696	1.7145	1.5543	2.0868	0.9809	0.6405	1.3108	1.0803	0.9886	1.6968	1.6565	1.5059		
		1.3696	1.7518	1.5335	1.5257	1.4083	1.0468	0.3946	1.6644	1.6478	1.3566	1.6987	1.5608		
		1.7726	1.0992	1.0632	1.2189	0.7044	1.3117	1.487	1.5515	1.1323	1.08	1.6336	1.6579		
		1.9671	1.8104	0.6526	0.9375	1.3377	1.3182	0.8776	1.558	1.7021	1.5879	0.8562	1.7233		
		
1:40	22.20	1.7053	0.7459	1.6154	1.665	1.4714	0.8235	1.2705	1.6215	0.7951	0.967	1.8574	1.9499		
		1.5597	1.7056	1.176	1.0804	1.4849	1.5599	1.4507	0.8388	1.2357	1.0555	1.1708	1.784		
		1.762	1.6905	0.6734	1.5985	1.7702	0.4615	0.9746	1.5832	1.4391	1.5253	1.6116	1.0148		
		1.4983	1.6802	1.5656	0.62	1.4555	1.2457	1.5104	1.3344	1.6686	1.2296	1.6385	1.3342		
		1.6128	1.693	1.517	2.024	0.9164	0.7891	1.3753	1.3347	1.3812	1.6335	1.6547	1.4655		
		1.4643	1.621	1.5715	1.5338	1.4016	1.002	0.3719	1.6813	1.6421	0.9177	1.6837	1.5226		
		1.6807	1.2214	0.9987	1.3886	0.7305	1.3636	1.5399	1.5235	0.9946	0.9422	1.5992	1.6866		
		1.9288	1.8853	0.7317	0.7916	1.4359	1.0665	0.4607	1.6008	1.6947	1.5154	0.7826	1.6863		
		
2:00	22.20	1.294	1.1469	1.1954	1.2368	1.1662	1.0847	1.1753	1.2712	1.0221	1.0462	1.2513	1.1825		
		1.2581	1.3238	1.0655	1.0842	1.1327	1.0647	1.072	0.8413	1.1683	1.0523	0.9666	1.1249		
		1.3252	1.2397	0.7778	1.2096	1.2032	0.6966	1.166	1.2096	1.2259	1.2185	1.1879	1.0466		
		1.2815	1.2383	1.3354	1.1239	1.0659	1.1771	1.2562	1.1681	1.2843	1.1611	1.1482	1.1399		
		1.3444	1.2682	1.3012	1.2654	1.2333	1.1692	1.2831	1.0826	1.1883	1.2527	1.245	1.1568		
		1.2829	1.3098	1.2361	1.2649	1.2344	0.9934	0.734	1.1915	1.2228	1.1456	1.3313	1.1625		
		1.4261	1.137	1.1859	1.0617	0.6257	1.1319	1.3021	1.2738	1.2464	1.0443	1.4049	1.2474		
		1.5941	1.3967	1.0642	1.1492	1.3148	1.1587	1.2353	1.2591	1.3933	1.3594	1.1188	1.3698		
		
2:20	22.30	1.8255	1.0057	1.664	1.7059	1.602	0.6447	1.4295	1.7696	0.9766	1.2751	1.9083	1.989		
		1.6897	1.8065	1.2062	1.2603	1.5695	1.4623	1.394	0.988	1.3837	1.2183	1.1434	1.6959		
		1.7059	1.78	0.8032	1.7073	1.6203	1.2398	0.9405	1.6245	1.5422	1.7018	1.8712	1.3452		
		1.5998	1.6707	1.8862	1.0432	1.2436	1.5371	1.4072	1.3472	1.8153	1.4154	1.6746	1.4777		
		1.7244	1.7519	1.6317	2.0589	1.1705	1.0169	1.4022	1.3663	1.1129	1.8203	1.6802	1.6307		
		1.4096	1.8956	1.5455	1.5575	1.494	0.8255	0.3786	1.6698	1.675	1.4647	1.6636	1.6012		
		1.8244	1.2813	1.0615	1.2003	0.4515	1.3027	1.5345	1.6049	1.3235	1.0134	1.7172	1.6686		
		2.0144	1.9026	0.6317	0.9762	1.3896	1.3037	0.9375	1.5752	1.6996	1.6273	0.9205	1.7475		
		
2:40	22.30	1.8086	0.8913	1.6687	1.6929	1.4244	0.8249	1.3421	1.7085	0.9706	1.1875	1.9321	2.0108		
		1.6372	1.8622	1.256	1.1604	1.5632	1.5563	1.4787	0.6554	1.2914	1.0991	1.1172	1.6488		
		1.7352	1.759	0.4295	1.684	1.7819	0.5173	0.8431	1.6314	1.4716	1.5959	1.7983	1.2064		
		1.589	1.7346	1.8272	0.7933	1.3575	1.4825	1.3497	1.3066	1.8158	1.3864	1.7031	1.4552		
		1.7117	1.7631	1.6011	1.998	1.1873	1.0627	1.2572	1.4369	1.221	1.8649	1.668	1.5998		
		1.4921	1.843	1.5035	1.5276	1.4608	0.7463	0.3213	1.6712	1.7189	0.9012	1.7268	1.6028		
		1.7874	1.2953	0.9856	1.48	0.9803	1.2847	1.5131	1.5528	1.2107	1.0143	1.7323	1.7381		
		1.9839	1.8973	0.6895	0.9468	1.4767	1.2079	0.8768	1.643	1.7029	1.5857	0.7894	1.7675		
		
~End
Instrument type: Instrument serial number:
